URL	chrom://pc-3vxg514/ChromeleonLocal/Data/2025/2025_w25.seq/417.smp/UV_VIS_2.channel/UV_VIS_2.chm
Channel	UV_VIS_2

Injection Information:
Data Vault	ChromeleonLocal
Sequence	2025_w25
Name	CA8393_16jun_iEDDAC_DMSO_DIPEA
Number	51
Position	RE7
Comment	
Processing Method	General_ILK
Instrument Method	5-100pct_positive_3min
Type	Calibration Standard
Status	Finished
Inject Time	6/17/2025 8:13:54 AM +02:00
Volume (µl)	13.0000
Dilution Factor	1.0000
Weight	1.0000

Chromatogram Data Information:
Time Min. (min)	0.000000
Time Max. (min)	3.100000
Data Points	931
Detector	UV
Generating Data System	Chromeleon 7.3.2.11814
Exporting Data System	Chromeleon 7.3.2.0
Operator	Instrument Controller
Signal Quantity	Absorbance
Signal Unit	mAU
Signal Min.	-0.001990
Signal Max.	406.727139
Channel	UV_VIS_2
Driver Name	DAD3000.dll
Channel Type	Evaluation
Min. Step (s)	0.2
Max. Step (s)	0.2
Average Step (s)	0.2

Signal Parameter Information:
Signal Info	WVL:254 nm

Chromatogram Data:
Time (min)	Step (s)	Value (mAU)
0.000000	n.a.	0.000000
0.003333	0.2	-0.000097
0.006667	0.2	-0.000561
0.010000	0.2	-0.001438
0.013333	0.2	-0.001990
0.016667	0.2	-0.000895
0.020000	0.2	0.002808
0.023333	0.2	0.008706
0.026667	0.2	0.014905
0.030000	0.2	0.019311
0.033333	0.2	0.021249
0.036667	0.2	0.021771
0.040000	0.2	0.022462
0.043333	0.2	0.024044
0.046667	0.2	0.025904
0.050000	0.2	0.026887
0.053333	0.2	0.026489
0.056667	0.2	0.025051
0.060000	0.2	0.023123
0.063333	0.2	0.021032
0.066667	0.2	0.018847
0.070000	0.2	0.016593
0.073333	0.2	0.014322
0.076667	0.2	0.012058
0.080000	0.2	0.010139
0.083333	0.2	0.009266
0.086667	0.2	0.009843
0.090000	0.2	0.011500
0.093333	0.2	0.013172
0.096667	0.2	0.013814
0.100000	0.2	0.013420
0.103333	0.2	0.013121
0.106667	0.2	0.014023
0.110000	0.2	0.016106
0.113333	0.2	0.018444
0.116667	0.2	0.020157
0.120000	0.2	0.020882
0.123333	0.2	0.020721
0.126667	0.2	0.020110
0.130000	0.2	0.019566
0.133333	0.2	0.019495
0.136667	0.2	0.020089
0.140000	0.2	0.021217
0.143333	0.2	0.022476
0.146667	0.2	0.023491
0.150000	0.2	0.024360
0.153333	0.2	0.025584
0.156667	0.2	0.027562
0.160000	0.2	0.030596
0.163333	0.2	0.034794
0.166667	0.2	0.039766
0.170000	0.2	0.046207
0.173333	0.2	0.587935
0.176667	0.2	5.690803
0.180000	0.2	26.794582
0.183333	0.2	78.187333
0.186667	0.2	161.839299
0.190000	0.2	258.773585
0.193333	0.2	339.283594
0.196667	0.2	381.049017
0.200000	0.2	379.579790
0.203333	0.2	347.231657
0.206667	0.2	304.129971
0.210000	0.2	267.009366
0.213333	0.2	243.322989
0.216667	0.2	232.699924
0.220000	0.2	230.943722
0.223333	0.2	232.488340
0.226667	0.2	231.713285
0.230000	0.2	224.625300
0.233333	0.2	210.411732
0.236667	0.2	191.165939
0.240000	0.2	169.772746
0.243333	0.2	148.059795
0.246667	0.2	126.873469
0.250000	0.2	107.474318
0.253333	0.2	92.142505
0.256667	0.2	82.841023
0.260000	0.2	79.188264
0.263333	0.2	78.174712
0.266667	0.2	76.339167
0.270000	0.2	72.058288
0.273333	0.2	65.653310
0.276667	0.2	58.324246
0.280000	0.2	51.859737
0.283333	0.2	48.370874
0.286667	0.2	48.638828
0.290000	0.2	50.691106
0.293333	0.2	50.962196
0.296667	0.2	47.002654
0.300000	0.2	38.911460
0.303333	0.2	28.682557
0.306667	0.2	18.706998
0.310000	0.2	10.670090
0.313333	0.2	5.209084
0.316667	0.2	2.118678
0.320000	0.2	0.759635
0.323333	0.2	0.422137
0.326667	0.2	0.540180
0.330000	0.2	0.760747
0.333333	0.2	0.919276
0.336667	0.2	0.976462
0.340000	0.2	0.954857
0.343333	0.2	0.893743
0.346667	0.2	0.825564
0.350000	0.2	0.768604
0.353333	0.2	0.728422
0.356667	0.2	0.702780
0.360000	0.2	0.686750
0.363333	0.2	0.675804
0.366667	0.2	0.666613
0.370000	0.2	0.657162
0.373333	0.2	0.647004
0.376667	0.2	0.636858
0.380000	0.2	0.627616
0.383333	0.2	0.619720
0.386667	0.2	0.613010
0.390000	0.2	0.606970
0.393333	0.2	0.601208
0.396667	0.2	0.595725
0.400000	0.2	0.590767
0.403333	0.2	0.586392
0.406667	0.2	0.582326
0.410000	0.2	0.578560
0.413333	0.2	0.575889
0.416667	0.2	0.575868
0.420000	0.2	0.580712
0.423333	0.2	0.592862
0.426667	0.2	0.614053
0.430000	0.2	0.644900
0.433333	0.2	0.685279
0.436667	0.2	0.734922
0.440000	0.2	0.794274
0.443333	0.2	0.866434
0.446667	0.2	0.962435
0.450000	0.2	1.114315
0.453333	0.2	1.401025
0.456667	0.2	1.989499
0.460000	0.2	3.187938
0.463333	0.2	5.500888
0.466667	0.2	9.665321
0.470000	0.2	16.635393
0.473333	0.2	27.479465
0.476667	0.2	43.169657
0.480000	0.2	64.290171
0.483333	0.2	90.755805
0.486667	0.2	121.673510
0.490000	0.2	155.446042
0.493333	0.2	190.108396
0.496667	0.2	223.772898
0.500000	0.2	255.010228
0.503333	0.2	283.034991
0.506667	0.2	307.664182
0.510000	0.2	329.114002
0.513333	0.2	347.746586
0.516667	0.2	363.866232
0.520000	0.2	377.615960
0.523333	0.2	388.968204
0.526667	0.2	397.767450
0.530000	0.2	403.780112
0.533333	0.2	406.727139
0.536667	0.2	406.299811
0.540000	0.2	402.175005
0.543333	0.2	394.048654
0.546667	0.2	381.694760
0.550000	0.2	365.041242
0.553333	0.2	344.243585
0.556667	0.2	319.732776
0.560000	0.2	292.218181
0.563333	0.2	262.640168
0.566667	0.2	232.081261
0.570000	0.2	201.653276
0.573333	0.2	172.382796
0.576667	0.2	145.116230
0.580000	0.2	120.458949
0.583333	0.2	98.754402
0.586667	0.2	80.100389
0.590000	0.2	64.393407
0.593333	0.2	51.388530
0.596667	0.2	40.761060
0.600000	0.2	32.159465
0.603333	0.2	25.244641
0.606667	0.2	19.713980
0.610000	0.2	15.311206
0.613333	0.2	11.825786
0.616667	0.2	9.086788
0.620000	0.2	6.955145
0.623333	0.2	5.316426
0.626667	0.2	4.074691
0.630000	0.2	3.147980
0.633333	0.2	2.466085
0.636667	0.2	1.970147
0.640000	0.2	1.612477
0.643333	0.2	1.355621
0.646667	0.2	1.171079
0.650000	0.2	1.037985
0.653333	0.2	0.941413
0.656667	0.2	0.870570
0.660000	0.2	0.817538
0.663333	0.2	0.776449
0.666667	0.2	0.743014
0.670000	0.2	0.714370
0.673333	0.2	0.688855
0.676667	0.2	0.665689
0.680000	0.2	0.644727
0.683333	0.2	0.626382
0.686667	0.2	0.611367
0.690000	0.2	0.599888
0.693333	0.2	0.591112
0.696667	0.2	0.583780
0.700000	0.2	0.576974
0.703333	0.2	0.570159
0.706667	0.2	0.563075
0.710000	0.2	0.555661
0.713333	0.2	0.547683
0.716667	0.2	0.538782
0.720000	0.2	0.528947
0.723333	0.2	0.518377
0.726667	0.2	0.507129
0.730000	0.2	0.495276
0.733333	0.2	0.483063
0.736667	0.2	0.470766
0.740000	0.2	0.458458
0.743333	0.2	0.445936
0.746667	0.2	0.433056
0.750000	0.2	0.419954
0.753333	0.2	0.406892
0.756667	0.2	0.394288
0.760000	0.2	0.382784
0.763333	0.2	0.372865
0.766667	0.2	0.364441
0.770000	0.2	0.356913
0.773333	0.2	0.349530
0.776667	0.2	0.341848
0.780000	0.2	0.334143
0.783333	0.2	0.327341
0.786667	0.2	0.322389
0.790000	0.2	0.319583
0.793333	0.2	0.318396
0.796667	0.2	0.318139
0.800000	0.2	0.318767
0.803333	0.2	0.320668
0.806667	0.2	0.323852
0.810000	0.2	0.327780
0.813333	0.2	0.331843
0.816667	0.2	0.335827
0.820000	0.2	0.339879
0.823333	0.2	0.344145
0.826667	0.2	0.348858
0.830000	0.2	0.354477
0.833333	0.2	0.361233
0.836667	0.2	0.368882
0.840000	0.2	0.377088
0.843333	0.2	0.385701
0.846667	0.2	0.394550
0.850000	0.2	0.403349
0.853333	0.2	0.412085
0.856667	0.2	0.421317
0.860000	0.2	0.431608
0.863333	0.2	0.442669
0.866667	0.2	0.453584
0.870000	0.2	0.463742
0.873333	0.2	0.473218
0.876667	0.2	0.482486
0.880000	0.2	0.491988
0.883333	0.2	0.501859
0.886667	0.2	0.511960
0.890000	0.2	0.522282
0.893333	0.2	0.533266
0.896667	0.2	0.545290
0.900000	0.2	0.558135
0.903333	0.2	0.571220
0.906667	0.2	0.583925
0.910000	0.2	0.595742
0.913333	0.2	0.606471
0.916667	0.2	0.616351
0.920000	0.2	0.625986
0.923333	0.2	0.636159
0.926667	0.2	0.647428
0.930000	0.2	0.659596
0.933333	0.2	0.671951
0.936667	0.2	0.684370
0.940000	0.2	0.697599
0.943333	0.2	0.712335
0.946667	0.2	0.728448
0.950000	0.2	0.745272
0.953333	0.2	0.762337
0.956667	0.2	0.779515
0.960000	0.2	0.796881
0.963333	0.2	0.814595
0.966667	0.2	0.832482
0.970000	0.2	0.849997
0.973333	0.2	0.866919
0.976667	0.2	0.883677
0.980000	0.2	0.900933
0.983333	0.2	0.919197
0.986667	0.2	0.938877
0.990000	0.2	0.960054
0.993333	0.2	0.982047
0.996667	0.2	1.004128
1.000000	0.2	1.026581
1.003333	0.2	1.050141
1.006667	0.2	1.075003
1.010000	0.2	1.101361
1.013333	0.2	1.130629
1.016667	0.2	1.165554
1.020000	0.2	1.209603
1.023333	0.2	1.267058
1.026667	0.2	1.343519
1.030000	0.2	1.445592
1.033333	0.2	1.579496
1.036667	0.2	1.749320
1.040000	0.2	1.955463
1.043333	0.2	2.193697
1.046667	0.2	2.456013
1.050000	0.2	2.733425
1.053333	0.2	3.018279
1.056667	0.2	3.304404
1.060000	0.2	3.586909
1.063333	0.2	3.862907
1.066667	0.2	4.130914
1.070000	0.2	4.388260
1.073333	0.2	4.629211
1.076667	0.2	4.845163
1.080000	0.2	5.025821
1.083333	0.2	5.160214
1.086667	0.2	5.237564
1.090000	0.2	5.249074
1.093333	0.2	5.190987
1.096667	0.2	5.066862
1.100000	0.2	4.887235
1.103333	0.2	4.667441
1.106667	0.2	4.424536
1.110000	0.2	4.174064
1.113333	0.2	3.928568
1.116667	0.2	3.697877
1.120000	0.2	3.489085
1.123333	0.2	3.306119
1.126667	0.2	3.150160
1.130000	0.2	3.020720
1.133333	0.2	2.916361
1.136667	0.2	2.834857
1.140000	0.2	2.773470
1.143333	0.2	2.729719
1.146667	0.2	2.701720
1.150000	0.2	2.687731
1.153333	0.2	2.685929
1.156667	0.2	2.694752
1.160000	0.2	2.713131
1.163333	0.2	2.740317
1.166667	0.2	2.775554
1.170000	0.2	2.817750
1.173333	0.2	2.865488
1.176667	0.2	2.917529
1.180000	0.2	2.973098
1.183333	0.2	3.031561
1.186667	0.2	3.092157
1.190000	0.2	3.154192
1.193333	0.2	3.216902
1.196667	0.2	3.279053
1.200000	0.2	3.339449
1.203333	0.2	3.397844
1.206667	0.2	3.454908
1.210000	0.2	3.511537
1.213333	0.2	3.568542
1.216667	0.2	3.626827
1.220000	0.2	3.687463
1.223333	0.2	3.751445
1.226667	0.2	3.819501
1.230000	0.2	3.891886
1.233333	0.2	3.967807
1.236667	0.2	4.045505
1.240000	0.2	4.123730
1.243333	0.2	4.202880
1.246667	0.2	4.284362
1.250000	0.2	4.369311
1.253333	0.2	4.457912
1.256667	0.2	4.549156
1.260000	0.2	4.640996
1.263333	0.2	4.731281
1.266667	0.2	4.818874
1.270000	0.2	4.903596
1.273333	0.2	4.984884
1.276667	0.2	5.060982
1.280000	0.2	5.129828
1.283333	0.2	5.190560
1.286667	0.2	5.244423
1.290000	0.2	5.294611
1.293333	0.2	5.345312
1.296667	0.2	5.401046
1.300000	0.2	5.466153
1.303333	0.2	5.543335
1.306667	0.2	5.631957
1.310000	0.2	5.728064
1.313333	0.2	5.826841
1.316667	0.2	5.926360
1.320000	0.2	6.030600
1.323333	0.2	6.150440
1.326667	0.2	6.302260
1.330000	0.2	6.502750
1.333333	0.2	6.758627
1.336667	0.2	7.055925
1.340000	0.2	7.358566
1.343333	0.2	7.620247
1.346667	0.2	7.803005
1.350000	0.2	7.891353
1.353333	0.2	7.895149
1.356667	0.2	7.842297
1.360000	0.2	7.767390
1.363333	0.2	7.702192
1.366667	0.2	7.670187
1.370000	0.2	7.684102
1.373333	0.2	7.745446
1.376667	0.2	7.846458
1.380000	0.2	7.974019
1.383333	0.2	8.113529
1.386667	0.2	8.251412
1.390000	0.2	8.376865
1.393333	0.2	8.483546
1.396667	0.2	8.570601
1.400000	0.2	8.642088
1.403333	0.2	8.704780
1.406667	0.2	8.765420
1.410000	0.2	8.829098
1.413333	0.2	8.899324
1.416667	0.2	8.978583
1.420000	0.2	9.068247
1.423333	0.2	9.167645
1.426667	0.2	9.272986
1.430000	0.2	9.377999
1.433333	0.2	9.476842
1.436667	0.2	9.566453
1.440000	0.2	9.646632
1.443333	0.2	9.719659
1.446667	0.2	9.790536
1.450000	0.2	9.866514
1.453333	0.2	9.954261
1.456667	0.2	10.055377
1.460000	0.2	10.163856
1.463333	0.2	10.268603
1.466667	0.2	10.360345
1.470000	0.2	10.438999
1.473333	0.2	10.517587
1.476667	0.2	10.620292
1.480000	0.2	10.773514
1.483333	0.2	10.991978
1.486667	0.2	11.266605
1.490000	0.2	11.562487
1.493333	0.2	11.830897
1.496667	0.2	12.029964
1.500000	0.2	12.141319
1.503333	0.2	12.173272
1.506667	0.2	12.151918
1.510000	0.2	12.108275
1.513333	0.2	12.068491
1.516667	0.2	12.049741
1.520000	0.2	12.061059
1.523333	0.2	12.107244
1.526667	0.2	12.193237
1.530000	0.2	12.326754
1.533333	0.2	12.519403
1.536667	0.2	12.787938
1.540000	0.2	13.155369
1.543333	0.2	13.649081
1.546667	0.2	14.293895
1.550000	0.2	15.100614
1.553333	0.2	16.051934
1.556667	0.2	17.091004
1.560000	0.2	18.122748
1.563333	0.2	19.034271
1.566667	0.2	19.727093
1.570000	0.2	20.144198
1.573333	0.2	20.278506
1.576667	0.2	20.162967
1.580000	0.2	19.853335
1.583333	0.2	19.413307
1.586667	0.2	18.904157
1.590000	0.2	18.376495
1.593333	0.2	17.862858
1.596667	0.2	17.381099
1.600000	0.2	16.979221
1.603333	0.2	16.862758
1.606667	0.2	17.611468
1.610000	0.2	20.386029
1.613333	0.2	26.893295
1.616667	0.2	38.893504
1.620000	0.2	57.338969
1.623333	0.2	81.639422
1.626667	0.2	109.602511
1.630000	0.2	138.156076
1.633333	0.2	164.424586
1.636667	0.2	186.562668
1.640000	0.2	203.988125
1.643333	0.2	217.047267
1.646667	0.2	226.432352
1.650000	0.2	232.721290
1.653333	0.2	236.232842
1.656667	0.2	237.141119
1.660000	0.2	235.659372
1.663333	0.2	232.140874
1.666667	0.2	227.061855
1.670000	0.2	220.936121
1.673333	0.2	214.225613
1.676667	0.2	207.283779
1.680000	0.2	200.338480
1.683333	0.2	193.505671
1.686667	0.2	186.821365
1.690000	0.2	180.278677
1.693333	0.2	173.858424
1.696667	0.2	167.547377
1.700000	0.2	161.344665
1.703333	0.2	155.260350
1.706667	0.2	149.310359
1.710000	0.2	143.510438
1.713333	0.2	137.870701
1.716667	0.2	132.393139
1.720000	0.2	127.073839
1.723333	0.2	121.907378
1.726667	0.2	116.889150
1.730000	0.2	112.015151
1.733333	0.2	107.281487
1.736667	0.2	102.684177
1.740000	0.2	98.218297
1.743333	0.2	93.876634
1.746667	0.2	89.648780
1.750000	0.2	85.521419
1.753333	0.2	81.480817
1.756667	0.2	77.516675
1.760000	0.2	73.624752
1.763333	0.2	69.807358
1.766667	0.2	66.072048
1.770000	0.2	62.428843
1.773333	0.2	58.887138
1.776667	0.2	55.453406
1.780000	0.2	52.130281
1.783333	0.2	48.917270
1.786667	0.2	45.812420
1.790000	0.2	42.813640
1.793333	0.2	39.919565
1.796667	0.2	37.130741
1.800000	0.2	34.450808
1.803333	0.2	31.886774
1.806667	0.2	29.448207
1.810000	0.2	27.145633
1.813333	0.2	24.989205
1.816667	0.2	22.988493
1.820000	0.2	21.152087
1.823333	0.2	19.485857
1.826667	0.2	17.991185
1.830000	0.2	16.664427
1.833333	0.2	15.497184
1.836667	0.2	14.477246
1.840000	0.2	13.590154
1.843333	0.2	12.820571
1.846667	0.2	12.153442
1.850000	0.2	11.575387
1.853333	0.2	11.075660
1.856667	0.2	10.645817
1.860000	0.2	10.278507
1.863333	0.2	9.966534
1.866667	0.2	9.702582
1.870000	0.2	9.479241
1.873333	0.2	9.288863
1.876667	0.2	9.123685
1.880000	0.2	8.976781
1.883333	0.2	8.842995
1.886667	0.2	8.719271
1.890000	0.2	8.604866
1.893333	0.2	8.500966
1.896667	0.2	8.409657
1.900000	0.2	8.333222
1.903333	0.2	8.273567
1.906667	0.2	8.231432
1.910000	0.2	8.206026
1.913333	0.2	8.195674
1.916667	0.2	8.198589
1.920000	0.2	8.212711
1.923333	0.2	8.235103
1.926667	0.2	8.261740
1.930000	0.2	8.287739
1.933333	0.2	8.308335
1.936667	0.2	8.320799
1.940000	0.2	8.326082
1.943333	0.2	8.328828
1.946667	0.2	8.336220
1.950000	0.2	8.356820
1.953333	0.2	8.400808
1.956667	0.2	8.483584
1.960000	0.2	8.632259
1.963333	0.2	8.889969
1.966667	0.2	9.310607
1.970000	0.2	9.938907
1.973333	0.2	10.779714
1.976667	0.2	11.772970
1.980000	0.2	12.794069
1.983333	0.2	13.684474
1.986667	0.2	14.298275
1.990000	0.2	14.543318
1.993333	0.2	14.401524
1.996667	0.2	13.924699
2.000000	0.2	13.211985
2.003333	0.2	12.379834
2.006667	0.2	11.535109
2.010000	0.2	10.757837
2.013333	0.2	10.095361
2.016667	0.2	9.565102
2.020000	0.2	9.161359
2.023333	0.2	8.863853
2.026667	0.2	8.646875
2.030000	0.2	8.486814
2.033333	0.2	8.366216
2.036667	0.2	8.274327
2.040000	0.2	8.205675
2.043333	0.2	8.158170
2.046667	0.2	8.131164
2.050000	0.2	8.123896
2.053333	0.2	8.134904
2.056667	0.2	8.161857
2.060000	0.2	8.201009
2.063333	0.2	8.247119
2.066667	0.2	8.294531
2.070000	0.2	8.338105
2.073333	0.2	8.373327
2.076667	0.2	8.396643
2.080000	0.2	8.405797
2.083333	0.2	8.399370
2.086667	0.2	8.376647
2.090000	0.2	8.338336
2.093333	0.2	8.286876
2.096667	0.2	8.226086
2.100000	0.2	8.160651
2.103333	0.2	8.095457
2.106667	0.2	8.034885
2.110000	0.2	7.982619
2.113333	0.2	7.941803
2.116667	0.2	7.914871
2.120000	0.2	7.903413
2.123333	0.2	7.909361
2.126667	0.2	7.938457
2.130000	0.2	8.006549
2.133333	0.2	8.146656
2.136667	0.2	8.409629
2.140000	0.2	8.850641
2.143333	0.2	9.502669
2.146667	0.2	10.349873
2.150000	0.2	11.317564
2.153333	0.2	12.287480
2.156667	0.2	13.131485
2.160000	0.2	13.745600
2.163333	0.2	14.069711
2.166667	0.2	14.090768
2.170000	0.2	13.835562
2.173333	0.2	13.359136
2.176667	0.2	12.731799
2.180000	0.2	12.026545
2.183333	0.2	11.308825
2.186667	0.2	10.629840
2.190000	0.2	10.023766
2.193333	0.2	9.508965
2.196667	0.2	9.091519
2.200000	0.2	8.769011
2.203333	0.2	8.533587
2.206667	0.2	8.373863
2.210000	0.2	8.276102
2.213333	0.2	8.225386
2.216667	0.2	8.206794
2.220000	0.2	8.206664
2.223333	0.2	8.213673
2.226667	0.2	8.219586
2.230000	0.2	8.219832
2.233333	0.2	8.213335
2.236667	0.2	8.201772
2.240000	0.2	8.188757
2.243333	0.2	8.178553
2.246667	0.2	8.174511
2.250000	0.2	8.177879
2.253333	0.2	8.187305
2.256667	0.2	8.199962
2.260000	0.2	8.214083
2.263333	0.2	8.230940
2.266667	0.2	8.254585
2.270000	0.2	8.289080
2.273333	0.2	8.334768
2.276667	0.2	8.386479
2.280000	0.2	8.435155
2.283333	0.2	8.471347
2.286667	0.2	8.488227
2.290000	0.2	8.483232
2.293333	0.2	8.457904
2.296667	0.2	8.416577
2.300000	0.2	8.365352
2.303333	0.2	8.310985
2.306667	0.2	8.259538
2.310000	0.2	8.216438
2.313333	0.2	8.187555
2.316667	0.2	8.179492
2.320000	0.2	8.198837
2.323333	0.2	8.250255
2.326667	0.2	8.333394
2.330000	0.2	8.440607
2.333333	0.2	8.557643
2.336667	0.2	8.666820
2.340000	0.2	8.751245
2.343333	0.2	8.799108
2.346667	0.2	8.806587
2.350000	0.2	8.778007
2.353333	0.2	8.723241
2.356667	0.2	8.653919
2.360000	0.2	8.580451
2.363333	0.2	8.510780
2.366667	0.2	8.450308
2.370000	0.2	8.402142
2.373333	0.2	8.367499
2.376667	0.2	8.346279
2.380000	0.2	8.337644
2.383333	0.2	8.340179
2.386667	0.2	8.351899
2.390000	0.2	8.370575
2.393333	0.2	8.393892
2.396667	0.2	8.419436
2.400000	0.2	8.445211
2.403333	0.2	8.470216
2.406667	0.2	8.494517
2.410000	0.2	8.519486
2.413333	0.2	8.547634
2.416667	0.2	8.581218
2.420000	0.2	8.620968
2.423333	0.2	8.665829
2.426667	0.2	8.712944
2.430000	0.2	8.758095
2.433333	0.2	8.797184
2.436667	0.2	8.827821
2.440000	0.2	8.849913
2.443333	0.2	8.865098
2.446667	0.2	8.875481
2.450000	0.2	8.882587
2.453333	0.2	8.887333
2.456667	0.2	8.891035
2.460000	0.2	8.897060
2.463333	0.2	8.914731
2.466667	0.2	8.968725
2.470000	0.2	9.113111
2.473333	0.2	9.440297
2.476667	0.2	10.069762
2.480000	0.2	11.107962
2.483333	0.2	12.589963
2.486667	0.2	14.431639
2.490000	0.2	16.422877
2.493333	0.2	18.273721
2.496667	0.2	19.697135
2.500000	0.2	20.491274
2.503333	0.2	20.586187
2.506667	0.2	20.042207
2.510000	0.2	19.011259
2.513333	0.2	17.684053
2.516667	0.2	16.244167
2.520000	0.2	14.839239
2.523333	0.2	13.569249
2.526667	0.2	12.487439
2.530000	0.2	11.608933
2.533333	0.2	10.922869
2.536667	0.2	10.404489
2.540000	0.2	10.024722
2.543333	0.2	9.756615
2.546667	0.2	9.578919
2.550000	0.2	9.478635
2.553333	0.2	9.455251
2.556667	0.2	9.525419
2.560000	0.2	9.721021
2.563333	0.2	10.074469
2.566667	0.2	10.593614
2.570000	0.2	11.238777
2.573333	0.2	11.918527
2.576667	0.2	12.512197
2.580000	0.2	12.909783
2.583333	0.2	13.048568
2.586667	0.2	12.928056
2.590000	0.2	12.599238
2.593333	0.2	12.140183
2.596667	0.2	11.632454
2.600000	0.2	11.144155
2.603333	0.2	10.720455
2.606667	0.2	10.382246
2.610000	0.2	10.131604
2.613333	0.2	9.959560
2.616667	0.2	9.852394
2.620000	0.2	9.795997
2.623333	0.2	9.778694
2.626667	0.2	9.791247
2.630000	0.2	9.825255
2.633333	0.2	9.874148
2.636667	0.2	9.935145
2.640000	0.2	10.007288
2.643333	0.2	10.087037
2.646667	0.2	10.166478
2.650000	0.2	10.235622
2.653333	0.2	10.286306
2.656667	0.2	10.314993
2.660000	0.2	10.323732
2.663333	0.2	10.319025
2.666667	0.2	10.308806
2.670000	0.2	10.299476
2.673333	0.2	10.294865
2.676667	0.2	10.296703
2.680000	0.2	10.305403
2.683333	0.2	10.320990
2.686667	0.2	10.343878
2.690000	0.2	10.374589
2.693333	0.2	10.412732
2.696667	0.2	10.456762
2.700000	0.2	10.504722
2.703333	0.2	10.554961
2.706667	0.2	10.606946
2.710000	0.2	10.662237
2.713333	0.2	10.724051
2.716667	0.2	10.794781
2.720000	0.2	10.873450
2.723333	0.2	10.955170
2.726667	0.2	11.032636
2.730000	0.2	11.098857
2.733333	0.2	11.150034
2.736667	0.2	11.186991
2.740000	0.2	11.214290
2.743333	0.2	11.237925
2.746667	0.2	11.263130
2.750000	0.2	11.293043
2.753333	0.2	11.328094
2.756667	0.2	11.366286
2.760000	0.2	11.404640
2.763333	0.2	11.441043
2.766667	0.2	11.475272
2.770000	0.2	11.508559
2.773333	0.2	11.542327
2.776667	0.2	11.577709
2.780000	0.2	11.616280
2.783333	0.2	11.659975
2.786667	0.2	11.709536
2.790000	0.2	11.763606
2.793333	0.2	11.819381
2.796667	0.2	11.873743
2.800000	0.2	11.924572
2.803333	0.2	11.971841
2.806667	0.2	12.016856
2.810000	0.2	12.060116
2.813333	0.2	12.100901
2.816667	0.2	12.139257
2.820000	0.2	12.177305
2.823333	0.2	12.218034
2.826667	0.2	12.263101
2.830000	0.2	12.311684
2.833333	0.2	12.361136
2.836667	0.2	12.409019
2.840000	0.2	12.454750
2.843333	0.2	12.499568
2.846667	0.2	12.545180
2.850000	0.2	12.592119
2.853333	0.2	12.639401
2.856667	0.2	12.686548
2.860000	0.2	12.735183
2.863333	0.2	12.787201
2.866667	0.2	12.842125
2.870000	0.2	12.896961
2.873333	0.2	12.948170
2.876667	0.2	12.994033
2.880000	0.2	13.035594
2.883333	0.2	13.075394
2.886667	0.2	13.115349
2.890000	0.2	13.155803
2.893333	0.2	13.196788
2.896667	0.2	13.239820
2.900000	0.2	13.287225
2.903333	0.2	13.339535
2.906667	0.2	13.394022
2.910000	0.2	13.446044
2.913333	0.2	13.492195
2.916667	0.2	13.532343
2.920000	0.2	13.568939
2.923333	0.2	13.604691
2.926667	0.2	13.640995
2.930000	0.2	13.678127
2.933333	0.2	13.715762
2.936667	0.2	13.752966
2.940000	0.2	13.788601
2.943333	0.2	13.822127
2.946667	0.2	13.853546
2.950000	0.2	13.882949
2.953333	0.2	13.910889
2.956667	0.2	13.938809
2.960000	0.2	13.968590
2.963333	0.2	14.001593
2.966667	0.2	14.037735
2.970000	0.2	14.075456
2.973333	0.2	14.112823
2.976667	0.2	14.148448
2.980000	0.2	14.181318
2.983333	0.2	14.210314
2.986667	0.2	14.234517
2.990000	0.2	14.254254
2.993333	0.2	14.271696
2.996667	0.2	14.289867
3.000000	0.2	14.310747
3.003333	0.2	14.334457
3.006667	0.2	14.360098
3.010000	0.2	14.386735
3.013333	0.2	14.413546
3.016667	0.2	14.439550
3.020000	0.2	14.463576
3.023333	0.2	14.484527
3.026667	0.2	14.501776
3.030000	0.2	14.515542
3.033333	0.2	14.527026
3.036667	0.2	14.538241
3.040000	0.2	14.551140
3.043333	0.2	14.566555
3.046667	0.2	14.584508
3.050000	0.2	14.605005
3.053333	0.2	14.627336
3.056667	0.2	14.649251
3.060000	0.2	14.667968
3.063333	0.2	14.681765
3.066667	0.2	14.690972
3.070000	0.2	14.698353
3.073333	0.2	14.707854
3.076667	0.2	14.722082
3.080000	0.2	14.740905
3.083333	0.2	14.761801
3.086667	0.2	14.782038
3.090000	0.2	14.801360
3.093333	0.2	14.821456
3.096667	0.2	14.842902
3.100000	0.2	14.863890
