URL	chrom://pc-3vxg514/ChromeleonLocal/Data/2025/2025_w25.seq/435.smp/ISQEC.xraw
Channel	UV_VIS_2

Injection Information:
Data Vault	ChromeleonLocal
Sequence	2025_w25
Name	CA8393_16jun_alkyne_DMSO_DIPEA
Number	48
Position	RB6
Comment	
Processing Method	General_ILK
Instrument Method	5-100pct_positive_3min
Type	Calibration Standard
Status	Finished
Inject Time	6/16/2025 4:55:42 PM +02:00
Volume (µl)	8.0000
Dilution Factor	1.0000
Weight	1.0000

Raw Data Information:
Data Points	1031
Mass Min. (m/z)	100.000000
Mass Max. (m/z)	1,200.091542
Retention Time (min)	1.666042
Mass Resolution	0.500000
Tolerance Unit	Amu
Scan Number	746
Scan Type	+ c ESI sid=20.00 Full ms [100.000-1200.000]
Is Centroid Scan	True
Base Peak Mass	320.141693
Base Peak Intensity	83,966,472.000000
Total Ion Count	110,324,942.379469

Raw Data:
Mass (m/z)	Value (counts)
100.7	237.540192
101.4	3,746.995361
101.9	9,424.202148
102.5	27,770.654297
103.2	1,299.325195
104.0	0.501424
105.3	2,758.666748
105.9	0.261667
106.6	139.741623
107.4	0.000001
108.3	0.000034
109.3	0.209237
110.7	146.173294
112.3	0.063906
113.4	0.000000
114.6	0.000008
115.7	0.087013
116.4	8.939154
117.4	7,373.538086
118.3	164,561.562500
119.0	4,472.828613
120.2	987,726.125000
121.3	38,338.320313
122.2	54,026.734375
123.3	10,389.801758
124.0	442.864349
125.1	947.099487
126.2	0.000008
127.1	0.080520
128.2	3,626.896973
130.3	821,058.500000
131.4	51,936.503906
132.5	1,003.545288
133.4	881.575806
134.1	0.000722
134.9	0.093797
135.5	0.000063
136.4	3,987.987061
137.6	0.000000
138.2	0.000003
139.0	1,232.912109
140.2	594.041626
142.0	9,152.195313
142.6	1,438.716064
143.4	37.688095
144.0	375.404724
144.7	0.107695
145.5	0.158857
146.5	272.383575
147.1	0.079920
147.9	0.368451
148.8	0.145297
149.8	1,845.890625
150.3	111.729263
151.0	472.930511
152.1	0.060986
152.8	269.915985
154.1	3.839080
154.9	0.000001
155.5	2,236.519043
156.5	11,088.881836
157.3	107,388.921875
158.7	8,156.388672
159.4	4,194.011719
160.6	1,148.199463
161.2	1,344.945068
161.9	0.108451
162.4	0.024619
163.0	0.000011
163.5	0.122802
164.1	362.630890
165.7	4,327.882813
166.6	787.204346
167.4	0.124354
168.1	0.189227
168.8	0.106373
169.4	0.510387
170.9	0.096201
171.5	0.049328
172.5	1,316.929077
173.4	0.007019
174.3	0.083158
175.3	736.599121
176.4	0.152921
177.2	11,664.663086
178.2	612.455933
178.9	0.150980
179.6	3,609.044189
180.3	0.156163
181.6	3,434.557617
182.4	442.156158
183.5	841.821472
185.9	246.863510
186.5	0.085584
187.4	1,601.153076
188.1	23.277084
188.9	2.458219
189.9	0.000000
190.5	0.000000
191.8	0.047150
192.7	0.018471
193.5	436.525085
194.4	5,579.898926
195.9	396.397064
196.4	1,391.431274
197.3	481.361084
199.2	760.961548
200.1	0.000000
201.2	0.000000
201.8	1,056.716431
202.4	10.772192
203.9	0.063603
204.4	0.001094
205.4	0.000016
206.4	96.904236
208.7	2,705.137207
209.4	0.084364
209.9	0.063867
210.5	779.048645
211.4	354.224854
212.5	139.324661
213.4	1,682.399048
214.4	60.932999
214.9	0.000005
216.0	137.768677
217.2	1,238.526489
217.8	0.050358
218.5	0.003117
219.4	4,076.460205
220.4	7,323.448242
221.6	237.717636
222.4	2.485426
223.3	2,863.400635
224.0	7,202.504395
224.8	137.100861
225.5	757.794250
226.3	0.134248
227.0	0.013486
228.6	829.128113
229.4	0.000011
230.1	0.000000
230.7	0.016797
231.3	0.374210
231.9	601.332886
233.0	829.303406
234.4	49.476856
235.4	185.223511
237.2	5,305.677734
237.8	1.218609
239.3	230.601990
240.4	0.125503
240.9	281.012848
242.4	289.051880
243.2	689.772705
244.2	192.640671
245.2	2,058.669678
246.2	5,494.766113
247.1	697.153931
248.6	5,022.143555
250.4	339.727386
251.0	0.000003
252.3	644.611938
252.9	0.077050
253.8	759.276611
254.7	530.636353
255.2	0.101563
256.4	3,548.564697
257.1	7,675.794922
258.1	3,442.842041
258.9	4,784.410156
259.5	1,093.454712
260.3	604.259338
260.9	3,563.225830
262.6	516.854553
263.5	0.287121
264.3	0.326299
265.1	6,071.537598
266.1	792.399597
267.1	1,838.627441
268.3	0.210574
269.3	1,549.462646
270.5	5,768.561035
271.0	69.452271
271.7	624.920410
272.9	332.921875
274.1	3,861.757568
274.7	6,230.572266
275.2	14,339.949219
276.3	2,177.776611
277.4	4,108.529297
279.0	3,778.839600
279.7	2,068.120605
280.7	207.943970
281.7	2.120630
282.3	0.005082
283.0	171.857117
283.9	0.040256
284.4	4.412954
285.7	0.153402
286.9	0.384334
287.6	392.436035
288.1	1,787.511230
288.8	2,461.536865
289.7	2,800.449219
290.4	3,643.746094
291.0	1,767.280762
292.3	0.197754
293.0	0.326828
293.9	1,361.802612
294.6	1,504.782471
295.4	3,759.354492
296.3	779.521484
297.8	1,280.541504
298.6	2,264.875732
300.1	2,040.078735
300.8	134.832001
301.7	0.319152
303.8	9,958.931641
304.3	63.835159
305.2	9,001.381836
306.1	17,848.943359
306.9	1,321.825195
307.7	0.089806
309.3	1,926.094849
310.6	0.708410
311.3	0.000465
312.1	0.058981
312.8	523.457703
313.7	601.239563
314.8	1,336.236206
316.0	1,475.915405
316.7	2,474.292480
318.1	3,665,287.000000
320.1	83,966,472.000000
321.4	11,062,478.000000
322.3	1,833,655.750000
323.3	236,833.656250
324.1	29,672.156250
325.0	521.375244
325.6	1,370.615112
326.5	754.091858
327.3	4,868.458008
328.1	7.296315
329.3	2,141.223877
329.8	0.260972
330.4	531.833862
331.2	13.821653
332.0	5,830.523438
333.4	4,648.728027
334.2	58,959.949219
335.4	26,572.404297
336.1	58,811.820313
337.0	32,485.005859
338.1	652,041.437500
339.3	161,296.796875
340.2	10,646.971680
340.8	1,914.787598
341.5	1,405.395996
342.3	617.367493
343.5	2,033.613403
344.4	41.167679
345.2	3,226.050537
345.9	9,647.465820
347.4	4,466.451172
348.1	4,366.500977
348.8	12,592.839844
349.9	37,382.015625
350.5	14,012.167969
351.1	14,766.896484
351.7	361,729.687500
352.3	690,660.750000
353.3	153,682.437500
354.3	37,307.421875
355.3	9,077.642578
356.3	9,439.152344
357.2	7,405.227051
357.9	992.405334
359.0	25,393.605469
359.5	22,850.947266
360.8	509,480.625000
361.4	333,130.062500
362.3	192,269.609375
363.4	41,048.234375
364.2	14,676.241211
365.2	9,117.966797
366.0	9,702.100586
366.5	4,789.953613
367.4	6,216.496582
368.1	21,360.437500
369.2	8,986.500000
370.1	14,465.694336
371.0	11,251.157227
371.8	3,543.112305
372.3	0.300524
373.3	7,668.769043
374.0	1,380.798584
375.3	5,804.900391
376.4	11,623.154297
377.9	21,044.765625
378.9	107,079.039063
379.9	244,697.890625
380.5	195,849.812500
381.3	63,630.308594
382.4	11,156.915039
382.9	1,923.219360
383.7	33,193.312500
384.3	75,193.023438
385.2	19,912.648438
386.0	5,248.300293
386.6	1,510.359619
387.3	2,382.690918
388.9	2,095.543945
390.1	226.192764
390.9	774.367676
392.0	14,344.395508
393.0	30,770.095703
393.6	30,977.539063
394.4	19,383.910156
395.1	6,487.431152
395.6	5,735.383789
396.4	4,073.046631
397.2	11,782.877930
397.7	131,952.765625
398.3	209,760.625000
399.2	86,442.796875
400.1	43,780.296875
400.8	8,439.746094
401.4	3,902.440186
403.0	2,250.669922
403.7	1,324.169800
404.9	4,508.004395
405.9	13,747.335938
406.8	26,002.824219
407.4	26,054.015625
408.2	12,753.196289
409.0	5,369.558594
410.1	28,715.552734
411.4	13,565.086914
412.3	10,499.935547
413.5	7,757.805176
414.1	29,480.294922
415.1	3,650.317627
415.6	11,778.928711
416.1	7,444.343750
416.9	8,404.357422
418.2	5,920.237793
419.2	10,406.513672
420.4	11,261.852539
421.3	7,916.841309
421.9	4,859.315430
422.5	2,036.716797
423.2	24,160.289063
424.1	7,832.157227
424.6	4,297.215332
425.5	16,871.105469
426.2	12,610.877930
427.0	8,109.413086
427.7	12,450.446289
428.4	719.298401
429.0	2,246.639404
430.0	10,302.333984
431.1	3,343.331299
432.3	4,994.637695
433.4	8,023.533691
434.7	3,735.194336
435.4	1,109.077759
436.6	3,637.311523
437.2	2,550.442383
437.9	4,391.684570
438.7	6,860.036133
439.6	2,028.866089
440.1	1,298.370361
441.4	5,263.977051
442.8	4,987.581543
444.1	16,368.979492
445.1	7,261.704102
446.1	7,873.485352
447.0	4,720.367676
448.0	1,226.211670
449.2	2,168.655029
450.1	368.092621
451.3	1,162.353027
451.8	279.084045
452.9	4,790.548828
453.7	5,321.979004
454.3	2,808.648438
455.0	7,709.938477
455.6	68.841888
456.3	979.298767
457.0	5,961.517090
457.7	228.921539
458.4	1,410.328247
459.0	180.471222
459.6	470.794586
460.6	2,269.384766
461.8	431.020325
462.3	644.514648
462.9	453.509705
463.5	717.531067
464.5	4,360.280762
465.2	517.832092
465.8	3,772.484619
466.7	4,713.548340
467.3	5,353.278320
468.0	3,739.741455
469.2	14,433.077148
469.9	1,122.303467
471.0	6,859.818359
472.1	1,075.368774
472.9	310.697205
474.2	104.957024
474.8	2,383.418213
475.4	1,795.445801
476.2	3,032.102539
476.8	302.749756
478.7	4,990.262695
479.2	1,734.488770
479.9	9,707.610352
480.9	1,804.541748
481.6	1,610.150513
482.5	1,769.319702
483.8	3,079.072510
485.0	801.561401
486.0	2,347.297363
486.7	611.343506
488.2	1,123.667358
489.1	1,063.374023
489.9	3,762.027832
490.5	1,388.363159
491.8	1,660.099609
492.4	7,977.243164
493.4	5,238.715332
494.2	2,607.604736
495.6	6,091.304199
496.2	955.295654
497.0	8,349.982422
497.7	4,024.454102
498.5	12,882.382813
499.7	1,247.319824
500.4	141.739792
501.0	5,644.270996
502.2	6,366.365723
503.1	0.287173
503.8	227.666443
504.5	0.557586
505.1	4,053.824463
506.0	4,819.227539
506.9	1,014.982788
508.2	2,321.863525
509.0	4,404.384766
510.0	4,810.635254
510.5	1,276.972168
511.5	296.509186
512.7	1,246.215088
513.6	2,454.544189
514.3	5,606.649902
515.2	1,788.156738
515.9	773.694702
516.9	2,574.889404
517.9	1,094.638794
518.5	87.285591
519.8	1,055.449463
520.4	2.232453
521.1	261.622772
522.0	1,688.334229
523.4	1,010.530090
524.0	745.491699
525.0	153.551041
526.1	5,590.295898
526.9	1,868.818359
527.6	1,757.940552
528.2	123.971207
528.7	383.516907
529.6	3,174.908936
530.1	4,358.460449
531.3	515.906189
532.7	4,654.692383
533.5	2,242.880615
534.5	1,870.983032
535.9	417.643372
536.9	586.708374
538.2	3,457.823242
539.0	0.079179
539.7	1,822.822998
540.5	109.222351
541.6	3,351.859619
542.3	372.291107
543.1	6,389.887695
544.0	1,520.177856
544.9	1,020.782043
545.5	7.132777
546.2	395.052948
547.5	643.188965
548.5	454.034668
550.2	957.155823
551.3	4,761.787598
552.4	0.058619
553.0	1,979.459717
554.1	1,036.992310
554.9	0.110967
555.7	367.422852
556.9	0.433571
557.5	2,075.245850
558.0	919.277161
558.6	951.549988
559.4	1,130.470581
561.0	169.229935
561.9	16.867210
562.5	1,201.807983
563.2	0.573651
563.9	3,009.226563
565.5	3,993.153076
566.2	6.686454
568.0	1,899.435547
569.0	706.661011
569.7	0.110770
570.5	0.128193
571.0	3,423.115723
571.8	0.090304
572.9	0.383201
573.8	1,411.382202
574.8	1,571.094360
575.4	0.000000
576.4	3,618.601563
577.1	1,033.172974
577.6	89.553345
578.6	1,434.846436
579.6	0.065424
580.2	0.000000
581.5	8,466.826172
582.6	2,151.631348
583.3	0.175949
584.8	7.070163
585.5	0.000006
586.3	0.022662
587.0	0.147350
587.5	1.562175
588.2	104.368591
589.3	0.404284
590.0	0.068642
591.3	328.604980
592.8	183.863800
593.6	1,272.368774
594.3	987.878601
595.0	1,299.466797
595.6	3,046.893066
596.5	19.906107
597.6	1,486.444946
598.5	202.099579
599.3	602.604614
600.0	3,355.608154
600.7	0.565996
601.5	487.086395
602.3	0.050837
603.3	3,387.491699
604.1	0.925696
605.0	189.487366
605.5	0.188604
606.1	0.340605
608.1	0.298893
609.0	3,245.249023
610.2	259.988251
610.8	20.561329
611.8	2,514.100830
612.9	3,136.118408
614.0	0.062528
614.9	581.166931
615.5	0.000005
616.4	585.569885
617.1	1,263.038818
618.1	0.060108
619.0	0.569927
620.2	258.740936
620.8	0.000014
621.3	0.000002
623.5	2,347.543457
624.5	1,712.922241
625.5	0.730193
626.8	601.393982
627.4	0.019639
628.0	3,387.604736
628.9	972.374878
629.7	2,632.450684
630.3	722.209656
631.3	229.549377
632.3	274.938599
632.9	115.791885
633.4	0.215571
634.2	3,642.979004
635.0	37,960.484375
636.1	13,724.529297
637.0	21,213.683594
637.6	7,000.845703
638.2	10,566.783203
638.7	384.619049
639.2	19,342.011719
640.3	16,532.822266
641.2	983.226501
642.1	2,016.362305
642.6	0.033180
643.2	0.180870
644.2	0.073778
644.8	1,261.695435
645.4	0.027177
646.1	3,373.802002
647.0	1,060.037476
648.4	123.184113
649.2	581.931580
649.9	169.496109
651.2	2,342.227783
652.0	1,702.465210
653.2	8,782.402344
654.4	4,359.192383
655.3	12,716.734375
656.2	2,880.465576
657.3	6,149.837402
658.5	2,012.351318
659.3	0.707475
660.0	0.000003
661.0	0.359840
661.8	0.006709
662.3	993.513367
663.4	0.067817
664.2	0.605788
665.6	0.003907
667.3	19,756.541016
668.2	2,300.114258
669.1	7,581.033203
670.1	7,164.312012
671.1	355,352.656250
672.2	178,828.062500
673.2	48,575.734375
674.2	12,504.516602
674.9	28.035570
675.4	134.482056
676.1	4,168.980957
677.5	1,213.115723
678.6	1,334.592651
679.1	2,717.892822
679.9	8,078.862793
681.3	2,453.899902
682.5	3,975.858643
683.1	601.118347
684.0	8,158.117188
684.7	1,112.957642
685.2	5,865.730469
686.2	2,884.019287
687.1	12,112.620117
688.1	4,006.036377
689.1	3,154.646240
690.1	1,575.309448
690.8	0.934605
691.9	1,863.871826
693.1	3,687.775635
693.9	3,958.368164
694.4	259.546173
695.1	0.020232
695.8	1,856.581787
696.8	3,675.890625
697.7	1,161.797607
698.4	0.000033
699.2	3,884.962891
699.8	23.212862
700.9	973.921326
701.7	92.082039
702.7	3,980.266602
703.7	3,757.116455
704.4	0.097290
705.0	9,031.816406
707.0	1,224.035767
707.6	0.046914
708.2	1,339.716064
709.0	800.267761
710.1	5,701.588379
711.2	1,894.349487
712.3	1,929.383911
713.0	1,781.351440
714.1	0.439192
715.4	1,485.041016
716.2	498.017517
717.2	4,120.736816
718.3	629.530457
719.0	4,677.899902
719.6	1,874.301758
721.2	2,750.160889
722.1	1,632.454834
723.0	73.850464
723.7	0.268752
724.6	261.651489
725.4	0.323757
726.8	1,411.050171
727.6	1,821.360107
728.3	2.662541
729.1	1.766445
729.9	3,222.748047
730.6	553.260193
731.3	3,961.664795
732.0	3,184.509766
733.2	2,567.560059
734.1	329.833313
735.1	8,231.519531
735.7	1,392.364746
737.3	792.713318
738.3	0.081952
739.0	0.097977
740.3	539.038513
741.0	2,180.490479
741.7	266.706940
742.5	0.023176
743.9	1,146.972046
744.9	0.146043
745.5	0.001629
746.3	0.480473
747.3	0.020913
747.8	1,635.864258
748.8	1,101.292969
749.6	902.319214
750.3	0.065284
751.2	983.118896
752.1	0.554221
753.2	643.770691
753.9	197.230179
754.9	910.390564
755.4	0.121545
757.3	9,526.177734
758.2	5,351.598633
759.8	1,955.335815
761.4	818.051270
762.0	0.107141
763.1	151.865616
763.6	93.522186
764.5	0.000003
765.2	1,468.047729
766.1	1,011.127319
766.9	212.725266
767.5	0.000471
768.0	0.000000
768.9	0.031942
770.0	2,839.971436
770.5	840.897766
771.4	0.018516
772.0	0.106899
773.3	0.000025
774.1	0.017037
774.8	1,321.909058
775.4	0.008041
776.2	0.168307
777.0	1,970.789917
777.9	0.121202
779.2	3,264.166016
780.0	419.030334
780.7	19.358009
782.0	0.068307
782.5	1,089.518311
783.2	0.118784
784.4	0.444674
785.2	891.008667
786.1	1.377718
787.0	426.057312
788.1	4,015.890137
789.1	1,511.655762
789.9	275.922302
790.5	0.002261
791.2	0.000000
791.8	0.000001
792.3	0.001473
793.1	0.039814
793.6	0.000003
794.3	0.000000
795.3	15.656425
796.0	0.000000
798.3	137.823212
798.8	0.240471
799.8	962.132141
800.9	0.113451
801.6	0.000006
802.1	0.163390
802.6	0.018266
803.2	642.981018
804.0	0.000000
804.5	0.000000
805.3	1,229.132568
805.8	0.341984
806.9	7.589899
808.3	0.083274
809.3	0.066204
809.8	532.047546
810.4	3,004.830322
811.1	0.000000
811.8	0.000001
812.7	3,251.998291
813.3	0.315899
813.9	0.096030
815.6	0.200569
816.3	0.000000
816.8	0.035222
818.0	0.026146
818.7	352.080566
819.4	0.024232
820.7	899.758606
821.4	0.111925
822.8	0.028027
823.7	0.000000
824.5	3,558.307373
825.7	0.000000
826.4	0.000000
827.9	0.000013
828.5	234.535172
829.7	287.296753
830.3	0.000000
830.9	0.000000
832.6	2,497.900146
833.4	1.418259
834.3	0.007500
835.3	0.000000
835.9	0.000000
836.5	0.061717
837.3	0.148184
838.8	0.000000
840.5	0.005229
841.1	360.822632
842.1	0.000000
842.6	0.000000
843.2	0.000000
845.0	64.871574
845.5	0.000000
846.7	0.275390
847.2	0.310342
848.6	0.075156
849.3	0.000004
850.0	0.000000
854.3	0.104503
855.0	765.879028
857.0	640.528076
857.7	0.213332
858.8	0.000000
859.9	0.000000
860.9	0.046734
862.1	0.069334
862.7	0.000000
863.3	0.000000
865.4	0.000000
866.5	0.000000
868.8	0.000000
869.7	0.000000
870.3	1,173.103516
871.2	2,011.456909
872.0	1,567.071045
873.5	0.000000
874.3	0.000000
875.5	0.039778
876.9	0.259536
877.7	0.049587
879.2	181.051102
880.0	0.000000
882.7	0.045480
884.9	0.000000
886.9	0.089468
887.6	2,747.546143
889.8	0.000000
890.3	0.000000
891.1	0.000000
894.4	182.494751
895.2	0.000000
899.1	0.000043
900.6	0.000000
903.4	0.000000
904.2	0.000000
906.5	0.000000
908.2	0.000000
909.8	213.153366
911.3	0.011556
912.0	0.000000
912.7	0.000000
913.8	0.000000
914.3	0.000000
915.4	0.000000
916.0	0.000000
916.9	0.000000
917.5	0.101930
918.3	0.000000
918.9	0.000000
921.4	0.004476
922.5	0.000000
923.1	0.000000
923.9	0.000000
927.5	0.000000
928.2	0.000000
929.2	1,444.692993
930.0	0.003708
930.9	0.007246
934.6	0.082551
935.6	0.000000
936.4	69.613892
938.1	0.000000
939.1	0.029210
940.9	0.029020
942.1	0.000000
945.8	0.000000
946.4	0.000000
947.0	0.000001
947.8	0.000000
949.0	0.002370
950.3	0.000000
951.1	0.000001
953.1	0.000000
954.4	149.653702
957.3	0.004755
957.9	0.000000
959.5	0.000000
962.4	0.000000
963.1	0.000000
965.0	0.000000
967.3	0.000000
971.4	0.000000
972.4	0.052585
973.1	0.000000
974.8	205.749237
975.9	0.000000
979.6	0.000791
981.0	0.039352
988.1	0.007192
990.3	1,061.393066
996.8	535.118774
997.5	0.000000
998.0	0.000000
998.6	0.000000
1,000.2	0.000000
1,001.3	0.000908
1,001.9	549.284851
1,002.6	0.025329
1,004.5	0.000796
1,008.8	0.000000
1,009.7	0.000000
1,010.6	0.000000
1,011.2	3,167.371338
1,012.0	0.000000
1,012.6	0.006223
1,014.7	0.000000
1,019.8	0.325813
1,021.0	0.000000
1,022.7	0.000000
1,026.6	0.007876
1,029.5	0.000000
1,031.1	0.000000
1,031.9	0.000000
1,034.5	0.009553
1,036.0	0.000000
1,037.2	0.000000
1,038.5	0.038068
1,041.0	70.726372
1,042.1	0.000000
1,043.6	0.010241
1,045.1	0.000000
1,050.7	0.000000
1,052.5	0.000000
1,053.6	2,794.269531
1,054.8	0.000000
1,062.2	0.000001
1,065.1	0.000000
1,065.8	5,812.155273
1,068.3	0.000000
1,070.3	36.240459
1,070.9	0.000000
1,072.6	0.000000
1,076.4	0.011797
1,077.0	0.000000
1,077.5	0.000000
1,078.2	0.000000
1,079.2	0.000000
1,080.4	0.000000
1,084.5	0.000000
1,085.8	0.000774
1,086.7	0.000000
1,088.1	0.000000
1,089.5	0.000000
1,095.7	0.000000
1,096.3	0.000000
1,098.4	0.000001
1,099.6	0.000000
1,100.3	0.000001
1,100.9	0.000000
1,106.0	1,699.570557
1,106.6	0.000000
1,110.0	0.000000
1,112.2	453.130341
1,113.0	0.000000
1,114.3	0.000000
1,115.0	69.458794
1,119.5	0.000000
1,121.9	0.007456
1,125.2	0.000000
1,125.9	0.007519
1,128.9	0.000000
1,129.9	0.000000
1,130.6	0.000000
1,132.1	0.000000
1,132.7	0.000000
1,133.8	0.036388
1,139.0	0.000000
1,139.6	0.000000
1,141.0	0.000000
1,141.6	0.000000
1,143.4	0.000000
1,146.9	0.028896
1,147.9	0.000000
1,149.5	0.000000
1,150.6	0.000002
1,151.6	0.000000
1,152.5	542.907776
1,153.1	0.000000
1,155.8	0.000000
1,157.2	0.000000
1,159.5	0.000000
1,162.3	0.004765
1,163.7	0.000000
1,166.8	0.000000
1,174.7	0.000000
1,175.9	0.000000
1,178.0	0.000528
1,182.2	0.000641
1,183.3	0.000000
1,184.0	0.000000
1,186.4	0.000000
1,187.1	0.000000
1,190.0	0.000001
1,191.8	0.000000
1,194.4	0.000000
1,194.9	0.005398
1,196.6	0.000000
1,197.2	0.000000
