URL	chrom://pc-3vxg514/ChromeleonLocal/Data/2025/2025_w25.seq/435.smp/UV_VIS_2.channel/UV_VIS_2.chm
Channel	UV_VIS_2

Injection Information:
Data Vault	ChromeleonLocal
Sequence	2025_w25
Name	CA8393_16jun_alkyne_DMSO_DIPEA
Number	48
Position	RB6
Comment	
Processing Method	General_ILK
Instrument Method	5-100pct_positive_3min
Type	Calibration Standard
Status	Finished
Inject Time	6/16/2025 4:55:42 PM +02:00
Volume (µl)	8.0000
Dilution Factor	1.0000
Weight	1.0000

Chromatogram Data Information:
Time Min. (min)	0.000000
Time Max. (min)	3.100000
Data Points	931
Detector	UV
Generating Data System	Chromeleon 7.3.2.11814
Exporting Data System	Chromeleon 7.3.2.0
Operator	Instrument Controller
Signal Quantity	Absorbance
Signal Unit	mAU
Signal Min.	-0.423312
Signal Max.	362.270254
Channel	UV_VIS_2
Driver Name	DAD3000.dll
Channel Type	Evaluation
Min. Step (s)	0.2
Max. Step (s)	0.2
Average Step (s)	0.2

Signal Parameter Information:
Signal Info	WVL:254 nm

Chromatogram Data:
Time (min)	Step (s)	Value (mAU)
0.000000	n.a.	0.000000
0.003333	0.2	-0.000202
0.006667	0.2	-0.001387
0.010000	0.2	-0.004533
0.013333	0.2	-0.009693
0.016667	0.2	-0.015780
0.020000	0.2	-0.021486
0.023333	0.2	-0.026028
0.026667	0.2	-0.029421
0.030000	0.2	-0.032478
0.033333	0.2	-0.036111
0.036667	0.2	-0.040502
0.040000	0.2	-0.045201
0.043333	0.2	-0.049582
0.046667	0.2	-0.052982
0.050000	0.2	-0.054951
0.053333	0.2	-0.055664
0.056667	0.2	-0.056057
0.060000	0.2	-0.057431
0.063333	0.2	-0.060681
0.066667	0.2	-0.065697
0.070000	0.2	-0.071468
0.073333	0.2	-0.076918
0.076667	0.2	-0.081797
0.080000	0.2	-0.086503
0.083333	0.2	-0.091135
0.086667	0.2	-0.095418
0.090000	0.2	-0.099423
0.093333	0.2	-0.103558
0.096667	0.2	-0.108064
0.100000	0.2	-0.112902
0.103333	0.2	-0.117764
0.106667	0.2	-0.122278
0.110000	0.2	-0.126267
0.113333	0.2	-0.129617
0.116667	0.2	-0.132360
0.120000	0.2	-0.134835
0.123333	0.2	-0.137186
0.126667	0.2	-0.139050
0.130000	0.2	-0.140040
0.133333	0.2	-0.140331
0.136667	0.2	-0.140660
0.140000	0.2	-0.141723
0.143333	0.2	-0.143575
0.146667	0.2	-0.145766
0.150000	0.2	-0.148114
0.153333	0.2	-0.150852
0.156667	0.2	-0.153924
0.160000	0.2	-0.156700
0.163333	0.2	-0.158450
0.166667	0.2	-0.159558
0.170000	0.2	0.245264
0.173333	0.2	4.611625
0.176667	0.2	23.987590
0.180000	0.2	73.279971
0.183333	0.2	155.446635
0.186667	0.2	250.661632
0.190000	0.2	326.911586
0.193333	0.2	362.270254
0.196667	0.2	356.986744
0.200000	0.2	327.513964
0.203333	0.2	292.364889
0.206667	0.2	262.722446
0.210000	0.2	241.532138
0.213333	0.2	226.871398
0.216667	0.2	215.174184
0.220000	0.2	203.266254
0.223333	0.2	189.689097
0.226667	0.2	174.948630
0.230000	0.2	160.205363
0.233333	0.2	145.746242
0.236667	0.2	130.934976
0.240000	0.2	115.145637
0.243333	0.2	98.377781
0.246667	0.2	81.515532
0.250000	0.2	66.454216
0.253333	0.2	55.452253
0.256667	0.2	49.469976
0.260000	0.2	46.979096
0.263333	0.2	44.842305
0.266667	0.2	40.525768
0.270000	0.2	33.487855
0.273333	0.2	24.892024
0.276667	0.2	16.469443
0.280000	0.2	9.561791
0.283333	0.2	4.741801
0.286667	0.2	1.903909
0.290000	0.2	0.561198
0.293333	0.2	0.137012
0.296667	0.2	0.151042
0.300000	0.2	0.290166
0.303333	0.2	0.398708
0.306667	0.2	0.430905
0.310000	0.2	0.398731
0.313333	0.2	0.332674
0.316667	0.2	0.259903
0.320000	0.2	0.196619
0.323333	0.2	0.148449
0.326667	0.2	0.113940
0.330000	0.2	0.088748
0.333333	0.2	0.068955
0.336667	0.2	0.052152
0.340000	0.2	0.036753
0.343333	0.2	0.021686
0.346667	0.2	0.006813
0.350000	0.2	-0.007259
0.353333	0.2	-0.019894
0.356667	0.2	-0.030877
0.360000	0.2	-0.040701
0.363333	0.2	-0.050357
0.366667	0.2	-0.060335
0.370000	0.2	-0.070123
0.373333	0.2	-0.078980
0.376667	0.2	-0.086691
0.380000	0.2	-0.093531
0.383333	0.2	-0.099790
0.386667	0.2	-0.105353
0.390000	0.2	-0.110050
0.393333	0.2	-0.114301
0.396667	0.2	-0.118764
0.400000	0.2	-0.123573
0.403333	0.2	-0.128532
0.406667	0.2	-0.133582
0.410000	0.2	-0.138590
0.413333	0.2	-0.143358
0.416667	0.2	-0.147982
0.420000	0.2	-0.152706
0.423333	0.2	-0.157636
0.426667	0.2	-0.162673
0.430000	0.2	-0.167701
0.433333	0.2	-0.172895
0.436667	0.2	-0.178449
0.440000	0.2	-0.184012
0.443333	0.2	-0.188953
0.446667	0.2	-0.193130
0.450000	0.2	-0.197065
0.453333	0.2	-0.201439
0.456667	0.2	-0.206525
0.460000	0.2	-0.211929
0.463333	0.2	-0.216699
0.466667	0.2	-0.219607
0.470000	0.2	-0.219542
0.473333	0.2	-0.215949
0.476667	0.2	-0.208915
0.480000	0.2	-0.198860
0.483333	0.2	-0.186321
0.486667	0.2	-0.172078
0.490000	0.2	-0.157225
0.493333	0.2	-0.142783
0.496667	0.2	-0.129319
0.500000	0.2	-0.117304
0.503333	0.2	-0.107536
0.506667	0.2	-0.100427
0.510000	0.2	-0.095312
0.513333	0.2	-0.090968
0.516667	0.2	-0.086536
0.520000	0.2	-0.081966
0.523333	0.2	-0.077822
0.526667	0.2	-0.074663
0.530000	0.2	-0.072724
0.533333	0.2	-0.071998
0.536667	0.2	-0.072252
0.540000	0.2	-0.073111
0.543333	0.2	-0.074502
0.546667	0.2	-0.076880
0.550000	0.2	-0.080977
0.553333	0.2	-0.087348
0.556667	0.2	-0.095937
0.560000	0.2	-0.106110
0.563333	0.2	-0.117051
0.566667	0.2	-0.128045
0.570000	0.2	-0.138678
0.573333	0.2	-0.148851
0.576667	0.2	-0.158732
0.580000	0.2	-0.168782
0.583333	0.2	-0.179505
0.586667	0.2	-0.191076
0.590000	0.2	-0.203371
0.593333	0.2	-0.216356
0.596667	0.2	-0.230041
0.600000	0.2	-0.243729
0.603333	0.2	-0.255986
0.606667	0.2	-0.265825
0.610000	0.2	-0.273386
0.613333	0.2	-0.279648
0.616667	0.2	-0.285927
0.620000	0.2	-0.293134
0.623333	0.2	-0.301285
0.626667	0.2	-0.309943
0.630000	0.2	-0.318706
0.633333	0.2	-0.327226
0.636667	0.2	-0.335096
0.640000	0.2	-0.341950
0.643333	0.2	-0.347618
0.646667	0.2	-0.352159
0.650000	0.2	-0.355838
0.653333	0.2	-0.359027
0.656667	0.2	-0.361926
0.660000	0.2	-0.364546
0.663333	0.2	-0.367017
0.666667	0.2	-0.369549
0.670000	0.2	-0.372266
0.673333	0.2	-0.375369
0.676667	0.2	-0.379062
0.680000	0.2	-0.383195
0.683333	0.2	-0.387407
0.686667	0.2	-0.391490
0.690000	0.2	-0.395352
0.693333	0.2	-0.398838
0.696667	0.2	-0.401764
0.700000	0.2	-0.404255
0.703333	0.2	-0.406866
0.706667	0.2	-0.409845
0.710000	0.2	-0.412611
0.713333	0.2	-0.414501
0.716667	0.2	-0.415629
0.720000	0.2	-0.416736
0.723333	0.2	-0.418238
0.726667	0.2	-0.419567
0.730000	0.2	-0.419857
0.733333	0.2	-0.419068
0.736667	0.2	-0.417923
0.740000	0.2	-0.417177
0.743333	0.2	-0.417262
0.746667	0.2	-0.418308
0.750000	0.2	-0.420140
0.753333	0.2	-0.422093
0.756667	0.2	-0.423284
0.760000	0.2	-0.423312
0.763333	0.2	-0.422450
0.766667	0.2	-0.421181
0.770000	0.2	-0.419673
0.773333	0.2	-0.417776
0.776667	0.2	-0.415557
0.780000	0.2	-0.413498
0.783333	0.2	-0.412049
0.786667	0.2	-0.411291
0.790000	0.2	-0.410922
0.793333	0.2	-0.410426
0.796667	0.2	-0.409366
0.800000	0.2	-0.407551
0.803333	0.2	-0.405035
0.806667	0.2	-0.402019
0.810000	0.2	-0.398788
0.813333	0.2	-0.395663
0.816667	0.2	-0.392712
0.820000	0.2	-0.389723
0.823333	0.2	-0.386736
0.826667	0.2	-0.384171
0.830000	0.2	-0.382266
0.833333	0.2	-0.380794
0.836667	0.2	-0.379424
0.840000	0.2	-0.377952
0.843333	0.2	-0.375983
0.846667	0.2	-0.372875
0.850000	0.2	-0.368350
0.853333	0.2	-0.362816
0.856667	0.2	-0.356812
0.860000	0.2	-0.350645
0.863333	0.2	-0.344771
0.866667	0.2	-0.339682
0.870000	0.2	-0.335315
0.873333	0.2	-0.331236
0.876667	0.2	-0.327112
0.880000	0.2	-0.322837
0.883333	0.2	-0.318427
0.886667	0.2	-0.313732
0.890000	0.2	-0.308454
0.893333	0.2	-0.302381
0.896667	0.2	-0.295504
0.900000	0.2	-0.288210
0.903333	0.2	-0.281209
0.906667	0.2	-0.275008
0.910000	0.2	-0.269558
0.913333	0.2	-0.264440
0.916667	0.2	-0.259346
0.920000	0.2	-0.254282
0.923333	0.2	-0.249239
0.926667	0.2	-0.244093
0.930000	0.2	-0.238926
0.933333	0.2	-0.233981
0.936667	0.2	-0.229269
0.940000	0.2	-0.224369
0.943333	0.2	-0.218690
0.946667	0.2	-0.212243
0.950000	0.2	-0.205803
0.953333	0.2	-0.199875
0.956667	0.2	-0.194046
0.960000	0.2	-0.187503
0.963333	0.2	-0.179546
0.966667	0.2	-0.169588
0.970000	0.2	-0.156882
0.973333	0.2	-0.139830
0.976667	0.2	-0.115317
0.980000	0.2	-0.078762
0.983333	0.2	-0.024690
0.986667	0.2	0.052500
0.990000	0.2	0.157585
0.993333	0.2	0.293533
0.996667	0.2	0.460820
1.000000	0.2	0.657241
1.003333	0.2	0.877977
1.006667	0.2	1.115546
1.010000	0.2	1.360203
1.013333	0.2	1.601149
1.016667	0.2	1.827376
1.020000	0.2	2.027898
1.023333	0.2	2.192495
1.026667	0.2	2.312752
1.030000	0.2	2.382547
1.033333	0.2	2.398473
1.036667	0.2	2.360658
1.040000	0.2	2.273346
1.043333	0.2	2.144794
1.046667	0.2	1.986275
1.050000	0.2	1.810014
1.053333	0.2	1.627146
1.056667	0.2	1.446822
1.060000	0.2	1.275951
1.063333	0.2	1.119059
1.066667	0.2	0.978578
1.070000	0.2	0.855300
1.073333	0.2	0.748644
1.076667	0.2	0.657095
1.080000	0.2	0.578643
1.083333	0.2	0.511210
1.086667	0.2	0.453415
1.090000	0.2	0.404836
1.093333	0.2	0.365067
1.096667	0.2	0.333137
1.100000	0.2	0.308235
1.103333	0.2	0.290059
1.106667	0.2	0.278039
1.110000	0.2	0.270820
1.113333	0.2	0.266741
1.116667	0.2	0.264717
1.120000	0.2	0.264654
1.123333	0.2	0.267106
1.126667	0.2	0.272533
1.130000	0.2	0.280720
1.133333	0.2	0.290923
1.136667	0.2	0.302568
1.140000	0.2	0.315467
1.143333	0.2	0.329519
1.146667	0.2	0.344540
1.150000	0.2	0.360311
1.153333	0.2	0.376768
1.156667	0.2	0.394146
1.160000	0.2	0.412688
1.163333	0.2	0.432022
1.166667	0.2	0.451075
1.170000	0.2	0.468681
1.173333	0.2	0.484162
1.176667	0.2	0.497429
1.180000	0.2	0.508808
1.183333	0.2	0.518879
1.186667	0.2	0.528312
1.190000	0.2	0.537670
1.193333	0.2	0.547490
1.196667	0.2	0.558451
1.200000	0.2	0.571149
1.203333	0.2	0.585790
1.206667	0.2	0.602139
1.210000	0.2	0.619400
1.213333	0.2	0.636359
1.216667	0.2	0.652485
1.220000	0.2	0.668846
1.223333	0.2	0.687407
1.226667	0.2	0.709588
1.230000	0.2	0.735525
1.233333	0.2	0.764360
1.236667	0.2	0.795006
1.240000	0.2	0.826389
1.243333	0.2	0.856987
1.246667	0.2	0.884991
1.250000	0.2	0.909297
1.253333	0.2	0.929771
1.256667	0.2	0.946416
1.260000	0.2	0.958784
1.263333	0.2	0.966496
1.266667	0.2	0.970239
1.270000	0.2	0.972007
1.273333	0.2	0.974525
1.276667	0.2	0.980627
1.280000	0.2	0.992804
1.283333	0.2	1.012763
1.286667	0.2	1.040933
1.290000	0.2	1.076102
1.293333	0.2	1.115448
1.296667	0.2	1.155061
1.300000	0.2	1.191425
1.303333	0.2	1.224200
1.306667	0.2	1.259935
1.310000	0.2	1.315534
1.313333	0.2	1.418440
1.316667	0.2	1.599085
1.320000	0.2	1.874004
1.323333	0.2	2.226794
1.326667	0.2	2.602093
1.330000	0.2	2.922296
1.333333	0.2	3.119057
1.336667	0.2	3.159821
1.340000	0.2	3.054862
1.343333	0.2	2.845572
1.346667	0.2	2.585247
1.350000	0.2	2.322604
1.353333	0.2	2.092500
1.356667	0.2	1.913489
1.360000	0.2	1.789650
1.363333	0.2	1.715074
1.366667	0.2	1.679202
1.370000	0.2	1.670513
1.373333	0.2	1.678223
1.376667	0.2	1.693189
1.380000	0.2	1.708492
1.383333	0.2	1.719785
1.386667	0.2	1.725526
1.390000	0.2	1.726717
1.393333	0.2	1.726080
1.396667	0.2	1.726869
1.400000	0.2	1.731544
1.403333	0.2	1.741128
1.406667	0.2	1.755405
1.410000	0.2	1.773119
1.413333	0.2	1.792208
1.416667	0.2	1.810539
1.420000	0.2	1.826613
1.423333	0.2	1.839891
1.426667	0.2	1.850824
1.430000	0.2	1.860173
1.433333	0.2	1.868138
1.436667	0.2	1.874640
1.440000	0.2	1.880374
1.443333	0.2	1.887014
1.446667	0.2	1.896255
1.450000	0.2	1.908894
1.453333	0.2	1.925064
1.456667	0.2	1.945312
1.460000	0.2	1.971454
1.463333	0.2	2.006341
1.466667	0.2	2.052141
1.470000	0.2	2.108038
1.473333	0.2	2.169068
1.476667	0.2	2.226870
1.480000	0.2	2.272069
1.483333	0.2	2.297541
1.486667	0.2	2.301207
1.490000	0.2	2.286693
1.493333	0.2	2.261287
1.496667	0.2	2.232899
1.500000	0.2	2.207830
1.503333	0.2	2.189367
1.506667	0.2	2.177743
1.510000	0.2	2.172354
1.513333	0.2	2.175489
1.516667	0.2	2.196065
1.520000	0.2	2.250646
1.523333	0.2	2.358992
1.526667	0.2	2.535662
1.530000	0.2	2.782009
1.533333	0.2	3.081826
1.536667	0.2	3.403038
1.540000	0.2	3.706379
1.543333	0.2	3.957514
1.546667	0.2	4.136005
1.550000	0.2	4.237091
1.553333	0.2	4.267197
1.556667	0.2	4.237768
1.560000	0.2	4.161863
1.563333	0.2	4.053723
1.566667	0.2	3.928304
1.570000	0.2	3.798992
1.573333	0.2	3.674766
1.576667	0.2	3.558953
1.580000	0.2	3.450318
1.583333	0.2	3.345851
1.586667	0.2	3.243680
1.590000	0.2	3.144642
1.593333	0.2	3.051873
1.596667	0.2	2.968840
1.600000	0.2	2.897840
1.603333	0.2	2.840072
1.606667	0.2	2.797126
1.610000	0.2	2.782404
1.613333	0.2	2.871634
1.616667	0.2	3.329057
1.620000	0.2	4.792644
1.623333	0.2	8.389069
1.626667	0.2	15.570827
1.630000	0.2	27.562106
1.633333	0.2	44.621057
1.636667	0.2	65.624871
1.640000	0.2	88.348747
1.643333	0.2	110.288105
1.646667	0.2	129.505170
1.650000	0.2	145.064512
1.653333	0.2	156.953730
1.656667	0.2	165.672582
1.660000	0.2	171.787939
1.663333	0.2	175.682128
1.666667	0.2	177.543202
1.670000	0.2	177.493277
1.673333	0.2	175.715490
1.676667	0.2	172.501390
1.680000	0.2	168.219767
1.683333	0.2	163.249478
1.686667	0.2	157.918051
1.690000	0.2	152.467620
1.693333	0.2	147.050543
1.696667	0.2	141.745645
1.700000	0.2	136.582323
1.703333	0.2	131.562564
1.706667	0.2	126.676591
1.710000	0.2	121.911988
1.713333	0.2	117.258231
1.716667	0.2	112.708506
1.720000	0.2	108.259495
1.723333	0.2	103.909723
1.726667	0.2	99.657793
1.730000	0.2	95.501850
1.733333	0.2	91.440047
1.736667	0.2	87.470735
1.740000	0.2	83.592211
1.743333	0.2	79.802768
1.746667	0.2	76.100918
1.750000	0.2	72.485378
1.753333	0.2	68.954802
1.756667	0.2	65.507303
1.760000	0.2	62.140194
1.763333	0.2	58.850727
1.766667	0.2	55.637029
1.770000	0.2	52.498235
1.773333	0.2	49.434568
1.776667	0.2	46.447510
1.780000	0.2	43.539068
1.783333	0.2	40.711123
1.786667	0.2	37.965983
1.790000	0.2	35.307173
1.793333	0.2	32.739770
1.796667	0.2	30.270312
1.800000	0.2	27.906015
1.803333	0.2	25.653850
1.806667	0.2	23.520435
1.810000	0.2	21.512209
1.813333	0.2	19.634928
1.816667	0.2	17.893302
1.820000	0.2	16.291273
1.823333	0.2	14.831786
1.826667	0.2	13.515931
1.830000	0.2	12.342196
1.833333	0.2	11.305623
1.836667	0.2	10.397085
1.840000	0.2	9.603500
1.843333	0.2	8.909462
1.846667	0.2	8.299801
1.850000	0.2	7.761203
1.853333	0.2	7.282305
1.856667	0.2	6.853629
1.860000	0.2	6.467806
1.863333	0.2	6.119308
1.866667	0.2	5.803481
1.870000	0.2	5.516258
1.873333	0.2	5.255041
1.876667	0.2	5.019051
1.880000	0.2	4.808470
1.883333	0.2	4.623469
1.886667	0.2	4.463678
1.890000	0.2	4.328024
1.893333	0.2	4.215003
1.896667	0.2	4.122982
1.900000	0.2	4.049855
1.903333	0.2	3.992808
1.906667	0.2	3.948908
1.910000	0.2	3.915442
1.913333	0.2	3.889717
1.916667	0.2	3.869468
1.920000	0.2	3.853274
1.923333	0.2	3.840142
1.926667	0.2	3.829388
1.930000	0.2	3.821231
1.933333	0.2	3.816811
1.936667	0.2	3.817609
1.940000	0.2	3.825042
1.943333	0.2	3.839818
1.946667	0.2	3.861129
1.950000	0.2	3.887079
1.953333	0.2	3.916377
1.956667	0.2	3.950068
1.960000	0.2	3.992596
1.963333	0.2	4.051032
1.966667	0.2	4.131746
1.970000	0.2	4.235860
1.973333	0.2	4.356261
1.976667	0.2	4.478202
1.980000	0.2	4.583282
1.983333	0.2	4.655050
1.986667	0.2	4.683885
1.990000	0.2	4.669108
1.993333	0.2	4.618021
1.996667	0.2	4.543184
2.000000	0.2	4.459102
2.003333	0.2	4.378957
2.006667	0.2	4.312210
2.010000	0.2	4.263680
2.013333	0.2	4.233717
2.016667	0.2	4.219243
2.020000	0.2	4.215487
2.023333	0.2	4.217747
2.026667	0.2	4.222738
2.030000	0.2	4.228875
2.033333	0.2	4.235400
2.036667	0.2	4.241610
2.040000	0.2	4.246907
2.043333	0.2	4.251162
2.046667	0.2	4.254782
2.050000	0.2	4.258502
2.053333	0.2	4.263341
2.056667	0.2	4.270493
2.060000	0.2	4.280591
2.063333	0.2	4.293108
2.066667	0.2	4.306784
2.070000	0.2	4.320296
2.073333	0.2	4.332488
2.076667	0.2	4.342570
2.080000	0.2	4.350361
2.083333	0.2	4.356434
2.086667	0.2	4.362074
2.090000	0.2	4.368681
2.093333	0.2	4.376714
2.096667	0.2	4.385373
2.100000	0.2	4.393716
2.103333	0.2	4.401875
2.106667	0.2	4.410810
2.110000	0.2	4.421173
2.113333	0.2	4.432821
2.116667	0.2	4.445376
2.120000	0.2	4.458949
2.123333	0.2	4.474545
2.126667	0.2	4.494403
2.130000	0.2	4.521949
2.133333	0.2	4.560866
2.136667	0.2	4.613679
2.140000	0.2	4.680148
2.143333	0.2	4.756003
2.146667	0.2	4.833330
2.150000	0.2	4.902776
2.153333	0.2	4.956232
2.156667	0.2	4.988898
2.160000	0.2	5.000319
2.163333	0.2	4.993963
2.166667	0.2	4.975277
2.170000	0.2	4.949869
2.173333	0.2	4.923073
2.176667	0.2	4.899684
2.180000	0.2	4.883191
2.183333	0.2	4.875626
2.186667	0.2	4.878649
2.190000	0.2	4.895021
2.193333	0.2	4.928575
2.196667	0.2	4.982000
2.200000	0.2	5.054307
2.203333	0.2	5.139640
2.206667	0.2	5.227841
2.210000	0.2	5.307021
2.213333	0.2	5.367039
2.216667	0.2	5.401882
2.220000	0.2	5.410602
2.223333	0.2	5.397085
2.226667	0.2	5.368580
2.230000	0.2	5.333433
2.233333	0.2	5.298970
2.236667	0.2	5.270231
2.240000	0.2	5.249648
2.243333	0.2	5.237505
2.246667	0.2	5.232849
2.250000	0.2	5.234308
2.253333	0.2	5.240598
2.256667	0.2	5.250587
2.260000	0.2	5.262829
2.263333	0.2	5.275474
2.266667	0.2	5.287144
2.270000	0.2	5.297542
2.273333	0.2	5.306992
2.276667	0.2	5.315904
2.280000	0.2	5.324514
2.283333	0.2	5.332533
2.286667	0.2	5.339317
2.290000	0.2	5.344823
2.293333	0.2	5.350001
2.296667	0.2	5.356072
2.300000	0.2	5.363943
2.303333	0.2	5.374184
2.306667	0.2	5.387084
2.310000	0.2	5.402629
2.313333	0.2	5.420487
2.316667	0.2	5.440254
2.320000	0.2	5.461843
2.323333	0.2	5.485399
2.326667	0.2	5.510651
2.330000	0.2	5.536436
2.333333	0.2	5.561120
2.336667	0.2	5.583435
2.340000	0.2	5.602790
2.343333	0.2	5.619143
2.346667	0.2	5.633003
2.350000	0.2	5.645348
2.353333	0.2	5.657262
2.356667	0.2	5.669495
2.360000	0.2	5.682350
2.363333	0.2	5.696053
2.366667	0.2	5.710806
2.370000	0.2	5.726359
2.373333	0.2	5.742240
2.376667	0.2	5.758502
2.380000	0.2	5.775606
2.383333	0.2	5.793788
2.386667	0.2	5.813039
2.390000	0.2	5.833286
2.393333	0.2	5.854357
2.396667	0.2	5.876185
2.400000	0.2	5.898765
2.403333	0.2	5.921597
2.406667	0.2	5.943699
2.410000	0.2	5.964391
2.413333	0.2	5.983739
2.416667	0.2	6.002307
2.420000	0.2	6.020591
2.423333	0.2	6.038596
2.426667	0.2	6.056157
2.430000	0.2	6.073481
2.433333	0.2	6.090941
2.436667	0.2	6.108761
2.440000	0.2	6.127160
2.443333	0.2	6.146225
2.446667	0.2	6.165621
2.450000	0.2	6.184808
2.453333	0.2	6.203458
2.456667	0.2	6.221824
2.460000	0.2	6.241341
2.463333	0.2	6.265364
2.466667	0.2	6.299859
2.470000	0.2	6.354163
2.473333	0.2	6.440761
2.476667	0.2	6.572161
2.480000	0.2	6.754774
2.483333	0.2	6.982706
2.486667	0.2	7.235562
2.490000	0.2	7.482143
2.493333	0.2	7.688621
2.496667	0.2	7.828113
2.500000	0.2	7.887954
2.503333	0.2	7.871067
2.506667	0.2	7.791699
2.510000	0.2	7.669887
2.513333	0.2	7.527294
2.516667	0.2	7.383513
2.520000	0.2	7.253118
2.523333	0.2	7.144821
2.526667	0.2	7.062150
2.530000	0.2	7.004543
2.533333	0.2	6.968741
2.536667	0.2	6.950659
2.540000	0.2	6.946949
2.543333	0.2	6.955017
2.546667	0.2	6.972011
2.550000	0.2	6.994615
2.553333	0.2	7.020046
2.556667	0.2	7.047227
2.560000	0.2	7.076697
2.563333	0.2	7.109036
2.566667	0.2	7.143751
2.570000	0.2	7.179769
2.573333	0.2	7.216224
2.576667	0.2	7.252531
2.580000	0.2	7.288166
2.583333	0.2	7.322901
2.586667	0.2	7.356897
2.590000	0.2	7.389852
2.593333	0.2	7.420803
2.596667	0.2	7.449504
2.600000	0.2	7.477098
2.603333	0.2	7.505156
2.606667	0.2	7.534814
2.610000	0.2	7.566860
2.613333	0.2	7.601843
2.616667	0.2	7.639961
2.620000	0.2	7.681096
2.623333	0.2	7.725045
2.626667	0.2	7.771426
2.630000	0.2	7.818969
2.633333	0.2	7.865524
2.636667	0.2	7.909284
2.640000	0.2	7.949512
2.643333	0.2	7.986388
2.646667	0.2	8.020961
2.650000	0.2	8.055172
2.653333	0.2	8.091180
2.656667	0.2	8.130067
2.660000	0.2	8.171377
2.663333	0.2	8.214085
2.666667	0.2	8.257622
2.670000	0.2	8.301981
2.673333	0.2	8.347153
2.676667	0.2	8.392573
2.680000	0.2	8.437355
2.683333	0.2	8.481181
2.686667	0.2	8.524875
2.690000	0.2	8.569938
2.693333	0.2	8.617211
2.696667	0.2	8.666222
2.700000	0.2	8.716070
2.703333	0.2	8.766539
2.706667	0.2	8.818084
2.710000	0.2	8.871211
2.713333	0.2	8.926207
2.716667	0.2	8.982910
2.720000	0.2	9.040467
2.723333	0.2	9.097506
2.726667	0.2	9.152505
2.730000	0.2	9.204241
2.733333	0.2	9.252354
2.736667	0.2	9.297647
2.740000	0.2	9.341803
2.743333	0.2	9.386687
2.746667	0.2	9.433679
2.750000	0.2	9.483119
2.753333	0.2	9.533999
2.756667	0.2	9.584373
2.760000	0.2	9.632536
2.763333	0.2	9.678056
2.766667	0.2	9.721800
2.770000	0.2	9.765235
2.773333	0.2	9.809409
2.776667	0.2	9.854376
2.780000	0.2	9.899994
2.783333	0.2	9.946997
2.786667	0.2	9.996408
2.790000	0.2	10.048044
2.793333	0.2	10.100246
2.796667	0.2	10.151185
2.800000	0.2	10.200210
2.803333	0.2	10.248093
2.806667	0.2	10.296072
2.810000	0.2	10.344654
2.813333	0.2	10.393564
2.816667	0.2	10.442920
2.820000	0.2	10.494025
2.823333	0.2	10.548407
2.826667	0.2	10.606138
2.830000	0.2	10.665478
2.833333	0.2	10.723860
2.836667	0.2	10.779329
2.840000	0.2	10.831871
2.843333	0.2	10.883228
2.846667	0.2	10.935232
2.850000	0.2	10.988554
2.853333	0.2	11.042850
2.856667	0.2	11.098137
2.860000	0.2	11.155482
2.863333	0.2	11.215337
2.866667	0.2	11.275749
2.870000	0.2	11.333252
2.873333	0.2	11.385604
2.876667	0.2	11.433480
2.880000	0.2	11.479594
2.883333	0.2	11.526490
2.886667	0.2	11.574762
2.890000	0.2	11.622968
2.893333	0.2	11.670027
2.896667	0.2	11.717484
2.900000	0.2	11.767997
2.903333	0.2	11.822048
2.906667	0.2	11.876968
2.910000	0.2	11.928660
2.913333	0.2	11.974616
2.916667	0.2	12.015748
2.920000	0.2	12.055303
2.923333	0.2	12.096333
2.926667	0.2	12.139659
2.930000	0.2	12.183804
2.933333	0.2	12.227718
2.936667	0.2	12.272765
2.940000	0.2	12.320581
2.943333	0.2	12.370224
2.946667	0.2	12.418389
2.950000	0.2	12.461804
2.953333	0.2	12.499559
2.956667	0.2	12.533315
2.960000	0.2	12.565348
2.963333	0.2	12.597256
2.966667	0.2	12.630382
2.970000	0.2	12.665837
2.973333	0.2	12.703304
2.976667	0.2	12.740623
2.980000	0.2	12.775297
2.983333	0.2	12.805928
2.986667	0.2	12.832206
2.990000	0.2	12.854825
2.993333	0.2	12.875950
2.996667	0.2	12.898847
3.000000	0.2	12.925995
3.003333	0.2	12.957540
3.006667	0.2	12.991914
3.010000	0.2	13.027493
3.013333	0.2	13.063048
3.016667	0.2	13.097205
3.020000	0.2	13.128342
3.023333	0.2	13.154880
3.026667	0.2	13.175955
3.030000	0.2	13.192505
3.033333	0.2	13.207214
3.036667	0.2	13.222860
3.040000	0.2	13.240988
3.043333	0.2	13.262024
3.046667	0.2	13.285963
3.050000	0.2	13.312390
3.053333	0.2	13.339879
3.056667	0.2	13.366171
3.060000	0.2	13.389621
3.063333	0.2	13.410127
3.066667	0.2	13.428677
3.070000	0.2	13.446706
3.073333	0.2	13.465878
3.076667	0.2	13.487657
3.080000	0.2	13.512021
3.083333	0.2	13.536635
3.086667	0.2	13.559087
3.090000	0.2	13.579837
3.093333	0.2	13.601102
3.096667	0.2	13.623754
3.100000	0.2	13.646553
