URL	chrom://pc-3vxg514/ChromeleonLocal/Data/2025/2025_w24.seq/31208.smp/ISQEC.xraw
Channel	UV_VIS_2

Injection Information:
Data Vault	ChromeleonLocal
Sequence	2025_w24
Name	CA8393_2jun_iEDDAC_MeMeTet_over72h
Number	15
Position	BA6
Comment	
Processing Method	General_ILK
Instrument Method	5-100pct_positive_3min
Type	Calibration Standard
Status	Finished
Inject Time	6/9/2025 11:37:00 AM +02:00
Volume (µl)	7.0000
Dilution Factor	1.0000
Weight	1.0000

Raw Data Information:
Data Points	1094
Mass Min. (m/z)	100.000000
Mass Max. (m/z)	1,200.092420
Retention Time (min)	1.752708
Mass Resolution	0.500000
Tolerance Unit	Amu
Scan Number	785
Scan Type	+ c ESI sid=20.00 Full ms [100.000-1200.000]
Is Centroid Scan	True
Base Peak Mass	320.180359
Base Peak Intensity	45,032,560.000000
Total Ion Count	64,070,222.528622

Raw Data:
Mass (m/z)	Value (counts)
100.7	64,445.296875
101.5	160,423.687500
102.4	32,859.230469
103.5	3,199.761719
104.5	800.004639
105.3	5,131.994629
106.5	1,842.777954
107.3	0.233429
107.8	0.081108
108.9	0.222801
109.6	136.393692
110.4	7,555.658691
111.5	2,711.390869
112.1	0.342057
113.2	5,075.888672
114.1	0.068730
114.9	5,492.668457
115.6	4,400.612793
116.2	2,259.507080
117.3	5,092.185547
118.4	96,917.226563
119.4	8,062.683105
120.6	3,825.755127
121.8	0.000018
122.8	7,981.642578
123.8	904.008911
124.6	1,324.250732
125.5	850.602112
126.7	876.796631
127.6	153.367310
128.7	2,271.683350
129.6	7,981.754395
130.5	73,077.585938
131.4	13,333.565430
132.1	175.233688
132.6	214.013016
133.3	3,715.874756
134.0	0.236931
134.5	0.000000
135.3	854.526306
135.9	0.003605
136.5	0.000004
137.6	0.401290
138.6	1,185.274658
139.4	1,703.679810
140.1	0.017487
140.9	554.880310
141.6	8,620.699219
142.9	2,182.510254
144.0	1,014.064575
144.8	41.192463
145.5	0.300343
146.2	555.455505
147.2	578.571594
148.6	770.492249
149.7	0.003727
151.0	715.414551
152.5	1,323.113037
153.1	115.612816
154.0	4,033.035400
154.7	5,990.103516
155.5	2,258.437988
156.5	4,657.427246
157.3	6,816.884766
157.9	0.580930
159.5	0.260922
160.6	811.661499
161.6	5.182031
162.2	0.466411
163.1	4,309.311035
163.7	2,124.885742
165.3	3,498.903809
166.5	1,666.572021
167.3	4.194107
167.8	1,093.970581
168.7	812.855896
169.3	260.998993
170.3	5,296.353027
171.2	18.575264
172.0	3,125.415527
172.5	1,304.915649
173.9	2,056.135742
174.5	549.586060
175.5	3,532.682617
176.6	64.411644
177.1	0.000121
178.1	711.898071
178.9	349.248840
179.8	0.370818
180.4	559.397644
181.1	2,901.474121
181.7	0.520299
182.5	196.110184
183.4	4,365.517090
184.0	0.037658
184.6	854.609863
185.4	0.502692
186.5	11,666.932617
187.8	1,464.737305
188.7	111.217339
189.5	729.173157
190.4	9.876428
191.1	0.004285
191.7	7.195221
192.4	227.160217
193.3	3,468.815674
194.6	3,544.432373
195.6	6,965.581543
196.7	16,697.921875
197.6	13,153.139648
198.3	7,420.189453
198.9	6,170.510742
199.4	9,129.584961
200.4	5,589.170898
201.1	1.161649
201.9	721.818787
202.8	3,200.906494
203.6	2,422.087402
204.2	0.576143
205.9	405.878265
206.9	1,463.705322
207.4	0.784699
208.2	0.120227
209.4	84.430695
210.7	1,875.473755
211.6	1,032.314819
212.5	821.964966
213.4	664.227051
214.7	2,701.026367
215.7	0.479069
216.7	301.151489
218.0	1,401.008057
218.7	1,471.978149
219.6	257.983307
220.4	0.167142
221.8	0.543858
223.1	1,898.823242
224.0	6,717.487793
224.6	7,137.265625
225.5	4,709.275879
226.4	18,786.478516
227.6	527.685059
228.4	2,814.346924
229.0	74.524612
229.8	839.884766
230.4	626.724792
230.9	0.013726
231.5	1,294.280884
233.3	3,373.938477
234.7	825.731750
235.2	693.977356
235.8	4,347.385742
236.4	6,726.630371
237.6	5,037.322266
238.3	1,024.350708
239.3	1,472.381470
240.3	2,547.347168
241.6	1,589.373291
242.4	676.578247
243.1	2,942.466553
244.0	12,550.550781
244.7	4,099.074707
245.7	7,601.755859
246.4	15,541.448242
247.6	3,058.559082
248.8	119.870415
249.8	154.533493
250.4	1,509.487671
251.7	705.938782
252.8	5,776.061523
253.7	6,175.582520
254.4	2,492.217529
255.5	1,214.076538
256.5	1,497.638916
257.1	685.692810
257.7	121.095108
258.4	2,975.534180
259.2	1,115.540894
260.0	200.921066
260.7	173.796783
261.3	49.927277
261.9	0.025421
263.4	243.195221
265.0	602.376770
265.6	214.488373
266.4	92.979332
267.2	3,685.469482
268.1	0.203859
268.8	790.586121
269.4	3,533.782227
270.2	682.253357
270.9	1,534.809082
271.7	1,085.188965
272.6	0.190831
273.2	3,554.244385
273.9	208.423508
274.8	16,594.730469
275.5	10,375.793945
276.0	6,212.304199
277.1	3,463.153320
278.0	421.540649
278.6	868.300537
279.4	8,141.343262
280.1	231.807678
280.7	1.534296
281.7	719.053101
282.4	0.326882
283.7	1,567.580078
284.4	1.795128
285.2	1,972.816040
286.7	1,102.045166
287.4	279.699036
288.6	6,662.959473
289.6	4,447.023438
290.3	129.783737
291.4	6,194.462402
292.1	1,238.071655
292.8	1,686.720459
293.3	0.185441
293.9	0.792260
294.6	114.436295
295.6	841.167969
296.5	84.528252
297.4	612.626160
298.3	3,564.909668
299.8	4,549.302734
300.4	601.552917
301.0	270.894867
302.1	292.259583
303.0	553.503662
303.9	3,307.124756
305.9	53,465.421875
306.6	14,302.894531
307.3	10,963.614258
308.4	1,023.236816
309.3	1,187.466309
310.5	1,592.217773
311.2	3,238.556152
311.9	390.927887
312.5	1,191.114502
313.3	930.138855
314.2	699.967957
315.6	1,747.914917
316.2	3,004.364990
316.9	444.643707
318.1	789,567.437500
320.2	45,032,560.000000
321.4	8,069,850.500000
322.4	1,228,114.250000
323.4	240,690.890625
324.4	16,093.389648
325.2	726.755066
325.9	1,340.722290
326.5	3,512.389893
328.0	3,653.960693
329.4	4,599.229492
330.3	12,780.155273
331.2	3,010.539795
332.5	3,832.800049
333.4	9,585.273438
334.1	9,509.126953
334.8	5,100.352539
335.5	7,976.143555
336.1	6,337.903809
336.7	2,937.831299
337.7	81,314.742188
338.4	181,402.484375
339.2	33,370.484375
340.1	4,432.657715
340.6	1,002.919128
341.4	706.656250
342.5	5,774.904297
343.7	1,916.951050
344.8	9,628.289063
345.9	10,244.758789
346.6	9,642.510742
347.5	11,125.375000
348.4	6,113.769043
349.9	53,531.562500
350.4	42,718.593750
352.2	2,217,502.750000
353.3	702,493.062500
354.6	212,456.421875
355.4	146,146.015625
356.4	32,124.523438
357.2	3,681.118652
357.9	3,777.217529
359.3	2,372.754639
360.0	1,184.196533
361.0	492,510.906250
361.6	214,330.187500
362.3	104,163.257813
363.3	41,517.992188
363.8	14,604.311523
364.5	4,069.065430
366.1	22,813.083984
366.8	12,786.214844
367.7	17,274.332031
368.3	50,570.031250
369.0	6,034.455566
369.7	9,139.386719
370.3	10,244.495117
371.3	5,062.509766
372.0	1,664.560547
373.2	427.634277
374.0	98.301308
374.6	4,732.318359
375.9	974.328674
377.1	1,178.033936
377.9	9,805.803711
378.9	30,516.583984
379.8	45,102.796875
380.4	53,326.992188
381.3	23,821.513672
382.1	10,662.403320
382.8	3,552.431641
383.5	13,835.474609
384.1	13,483.031250
384.7	146.087357
385.4	2,957.209473
386.1	4,784.476563
387.3	4,152.546875
388.3	5,193.339844
389.4	1,381.049927
390.9	73,875.304688
391.7	41,049.402344
392.8	66,443.578125
393.4	71,405.304688
394.1	59,298.429688
394.9	2,682.178955
395.5	6,159.639648
396.2	14,545.400391
396.9	1,506.390747
397.7	5,324.229492
398.6	5,315.366699
399.2	3,744.565430
399.8	1,960.618652
400.6	220.355804
401.5	377.488098
402.4	959.794128
403.0	1,483.119629
404.0	25,825.107422
405.2	10,998.683594
405.8	1,513.968140
406.8	15,213.479492
407.7	3,878.151611
408.4	8,610.575195
409.3	2,703.721924
410.2	4,918.665039
411.6	1,653.642700
412.5	5,330.870117
413.7	112,975.617188
414.2	389,242.968750
415.1	91,033.500000
416.0	36,172.085938
416.9	7,458.744141
417.7	1,491.208008
418.4	2,616.715576
418.9	732.177307
420.1	3,499.375732
421.1	9,729.935547
421.9	1,146.370850
423.0	6,606.585938
424.1	504.867554
424.6	1,579.129028
425.6	2,868.700439
426.5	8,583.061523
427.4	6,140.711914
427.9	2,837.389648
429.0	2,288.389404
429.9	6,418.513672
430.5	6,180.295898
431.4	904.907471
432.2	6,387.865723
433.3	8,144.747559
434.1	66,104.226563
435.0	30,896.019531
436.2	3,865.514404
436.9	4,387.272949
437.4	159.159927
439.0	4,681.881348
439.6	4.343091
440.3	0.096014
441.0	286.836151
441.6	0.134137
442.1	207.026611
443.6	8,654.177734
444.2	3,514.187012
444.8	1,466.791382
445.3	3,478.569336
446.4	254.301697
447.2	5,834.688477
448.0	11,895.355469
448.6	1,543.345459
449.3	1,708.393311
450.1	27.045843
450.7	1,301.709595
451.6	589.845154
452.6	595.964783
453.2	1,310.722534
453.9	154.975677
454.9	3,297.577881
455.6	1,399.176636
456.6	2,817.513184
457.4	1,432.771606
458.4	3,549.936768
459.2	2,507.468750
460.2	9,945.720703
461.7	56,487.792969
462.2	329,327.437500
463.0	87,349.718750
463.6	58,159.519531
464.4	5,343.180176
465.3	6,150.992676
466.1	5,230.112305
467.0	4,670.330078
467.9	1,675.910889
468.7	20,466.523438
469.5	10,780.416016
470.5	3,636.871338
471.0	4,224.593262
472.1	5,665.668457
472.8	0.014050
473.3	444.178711
473.9	752.242798
474.7	1,040.587769
475.5	5,705.990723
477.0	5,750.184082
478.3	5,660.411133
479.0	11,941.271484
479.9	6,386.810059
480.6	8,199.015625
481.5	9,703.008789
483.0	10,597.607422
483.5	3,210.143799
484.3	2,905.736328
485.4	6,391.150879
486.2	3,411.496582
486.7	437.906433
488.8	1,684.635986
490.1	2,563.479004
491.5	5,616.644043
492.3	10.628296
492.9	528.871521
493.9	5,282.255371
494.5	906.565491
495.5	400.911652
496.1	98.310005
496.9	7,938.951660
497.5	3,432.666504
498.9	4,666.347168
499.7	2,358.747803
500.7	4,634.378906
501.4	1,827.569092
502.2	3,988.288086
503.0	13,846.534180
503.7	9,603.004883
504.9	2,926.236572
505.4	1,586.276001
506.2	1,386.164673
507.0	529.814270
508.0	1,789.441650
509.0	1,752.037964
510.4	3,014.353271
510.9	1,686.505249
511.9	2,035.598267
512.6	1,356.591431
513.7	1,699.557007
514.4	0.156538
515.3	459.882874
517.0	1,447.824951
517.9	261.648834
519.1	5,069.925781
519.9	2,148.791260
520.8	1,050.375122
521.9	3,517.265381
523.2	1,726.368164
524.2	7,740.118652
525.3	1,174.425293
525.9	0.087511
526.7	1,212.548706
527.9	2,741.521240
528.9	809.444702
531.0	1,177.748169
532.1	4,752.221191
533.1	3.937274
534.2	574.223328
534.9	2,126.250244
535.9	0.347080
536.6	0.280455
538.7	3,407.913818
539.6	2,486.946777
540.7	3,277.469482
542.2	543.476013
542.9	2,142.637207
543.8	1,848.186523
544.4	0.000025
545.0	0.043507
546.0	2,061.740234
546.5	102.442879
547.3	1,026.720337
548.2	175.914490
549.0	2,597.026855
550.3	1,250.350586
550.8	1,145.931396
551.6	1,595.221069
552.2	228.963654
553.0	0.000024
553.8	1,898.841675
554.4	1,335.940552
555.6	1,584.405762
556.2	0.000000
557.6	6,947.541992
558.6	698.871216
559.7	308.554688
560.4	468.221466
561.2	0.218531
561.9	209.611938
562.9	1,348.857910
563.9	929.782532
564.4	290.014496
565.2	4,506.299805
565.9	670.044250
567.0	0.368153
568.0	0.676569
568.9	3,183.323730
569.9	117.520256
571.2	3,800.653564
571.7	436.666229
572.6	2,449.111328
573.1	2,058.128418
574.0	318.444214
575.3	1,580.559082
576.0	4.065508
576.8	162.971176
577.6	0.000094
578.3	383.600830
579.0	4,088.002686
579.7	3,062.932373
580.6	2,306.686523
581.3	61.956844
583.2	416.640747
584.1	2,297.609619
584.6	0.000000
585.2	1,086.567627
585.8	1.033305
586.6	0.000000
587.4	0.000020
588.0	3,104.310059
589.0	2,614.526367
590.1	0.002650
591.0	0.229022
591.7	0.000015
592.3	2,713.611572
593.6	1,403.045898
594.3	0.040909
595.7	5.042170
596.2	0.026981
596.9	3,179.165039
597.9	193.406555
598.5	3,345.848877
599.3	2,207.338135
599.8	136.872620
601.0	1,622.379272
601.9	143.759613
602.7	0.116054
603.3	0.152667
604.0	131.330795
604.5	155.171814
605.0	0.000031
605.5	723.260498
607.1	1,533.319702
607.7	21.521927
609.2	1,379.938721
609.9	1,244.362793
611.0	2,891.670654
611.6	146.696976
612.5	585.899658
613.1	298.506805
613.9	3.511914
614.4	1,108.127930
615.1	0.070648
615.9	1,238.095459
616.9	0.019534
617.4	308.813721
618.1	0.033475
618.8	1,350.394531
619.5	2,049.299561
620.1	195.014526
622.0	188.542068
622.8	173.314117
623.9	0.304125
624.9	6.584148
625.4	113.784157
626.8	297.228821
627.9	19.808195
629.1	1,024.890015
629.9	419.599884
630.6	464.891998
631.2	269.322540
632.2	0.017621
633.3	395.163422
634.5	83.324486
635.0	793.767700
635.9	429.468323
637.1	3,722.602295
638.1	2,437.705566
639.0	3,407.784424
639.8	0.041495
640.6	0.023113
641.3	21.614689
642.1	6.240544
643.8	0.250276
644.3	235.359131
645.4	0.435661
646.3	273.081848
647.1	0.000000
647.7	2.430310
648.6	64.811584
650.6	1.523884
651.1	0.009086
652.3	1,586.766113
652.9	415.456909
653.8	1,534.150635
655.1	2,576.273926
655.8	8.014856
656.6	0.448286
657.1	0.011627
658.1	1,757.803467
658.8	0.218158
659.6	1,660.492188
660.2	186.807327
661.2	0.000007
661.9	0.031611
662.8	21.834934
663.6	0.026128
664.2	0.009177
665.2	68.990646
666.1	0.043939
666.9	0.000001
668.2	0.174758
669.2	3,180.576416
670.0	0.141602
670.5	189.176697
671.8	531.083862
672.5	1,162.717896
673.1	2,029.399536
673.9	659.908203
674.5	0.045414
675.5	2,112.142822
676.3	0.094474
677.2	928.164856
678.0	0.000024
679.1	628.189331
680.0	0.474166
681.3	430.716125
682.6	2,653.667236
683.2	284.211700
684.2	2,203.645996
685.1	6,538.626465
686.1	5,695.502441
686.8	3,063.822266
688.0	282.471527
689.0	0.048097
689.9	1,151.157227
690.5	46.724171
691.7	880.083313
692.3	152.199310
693.4	140.437851
694.6	1,878.708008
695.6	0.039495
696.3	17.670900
697.1	299.778595
697.6	0.000000
698.8	2,428.347656
699.6	1,008.211182
700.5	6,002.187500
701.2	50,457.976563
702.0	13,151.847656
702.6	6,518.365234
703.5	7,923.471680
704.1	1,954.793945
704.6	3,215.525146
705.3	0.000021
706.3	626.176941
707.2	149.121719
708.2	376.691498
708.7	0.022126
709.2	0.000004
709.8	60.305069
711.2	3,806.639160
711.7	1.281199
712.6	0.024840
713.1	14.441417
713.9	657.149719
714.9	857.142639
715.6	0.000000
716.8	2,939.385742
717.4	1,094.859375
717.9	105.533340
719.1	5,421.460938
720.1	2,428.141357
720.9	10.267377
721.5	0.226828
722.2	0.138932
723.0	0.016081
723.5	0.022665
724.8	675.074097
725.8	0.057303
726.4	0.271110
727.2	0.169475
727.9	0.000000
728.7	0.000002
729.7	0.000001
730.5	0.000004
731.2	0.136637
733.3	19,007.312500
734.4	17,721.546875
735.4	5,711.168945
736.1	829.669373
737.2	1.040713
738.0	0.134837
739.2	0.000005
740.5	14.577998
741.3	2,137.588379
742.1	0.000017
743.9	2.559692
745.3	0.000041
746.3	0.052101
747.4	1,497.952637
748.2	71.831306
749.3	101.296555
750.0	571.634827
751.5	0.000039
752.3	0.000000
753.4	441.718536
754.2	0.000039
755.5	42.538826
756.6	1.287045
757.3	0.000000
758.2	1.093158
759.6	902.266174
760.3	3,188.773926
760.9	0.200319
761.6	148.796936
762.5	1,713.736816
763.1	0.000000
763.6	0.010624
764.3	111.585709
765.4	0.067550
766.6	239.563492
767.8	749.393250
768.4	889.782715
769.4	0.026570
770.0	0.022947
770.7	333.391541
771.7	114.802780
773.0	450.483521
774.0	169.596222
774.7	2,969.536377
775.4	0.013420
776.8	0.011356
777.5	95.117393
778.2	1,385.106934
779.5	1,025.059326
780.4	5.049166
780.9	1,251.336670
782.9	170.528290
783.8	0.186300
784.3	111.760323
785.4	203.271896
785.9	0.073625
786.9	3,542.755859
787.7	0.000001
788.4	1,923.623291
789.2	2,159.242676
790.1	0.152606
791.2	1,578.221924
792.1	0.003567
793.1	2,059.637695
794.3	0.017133
795.1	0.095583
796.2	0.031692
796.9	263.099792
797.5	0.097294
798.1	0.017559
799.1	138.196823
799.8	211.084930
800.3	6,508.835938
801.3	0.255673
802.1	0.000000
802.7	362.037598
803.4	0.000000
804.0	92.931007
805.4	411.051971
806.0	4,254.936523
808.0	0.000000
808.8	0.000000
809.6	0.010065
810.2	0.000011
811.4	473.896606
812.0	3,219.538330
812.8	94.604790
813.4	0.139618
814.5	0.571864
815.4	0.013655
816.3	0.000000
816.9	0.000004
817.8	74.976273
819.2	0.000000
820.0	0.000020
821.3	1,295.634521
822.2	0.000000
822.7	0.029106
823.4	0.000000
824.2	0.000005
825.1	0.000000
825.8	0.000000
826.4	0.000000
827.0	281.850494
827.7	115.142410
828.6	151.323822
829.8	0.195523
830.6	0.000003
831.4	0.000000
832.1	4,181.245117
832.8	667.943237
833.8	0.000000
834.4	0.000000
834.9	0.273267
836.0	271.394379
837.0	0.000000
837.7	0.000000
838.4	0.000000
839.4	0.000000
841.0	0.000000
841.6	0.000000
843.3	3,079.243896
844.5	234.559799
845.1	0.000314
845.6	0.102386
847.7	261.592468
848.5	0.041648
849.1	0.000000
849.9	372.453613
851.0	0.007083
852.7	0.000000
854.1	0.000000
855.3	4,087.137939
855.8	0.039489
856.9	0.039736
857.6	0.000000
858.3	0.000000
858.8	0.000000
859.7	2,681.197754
860.5	218.346558
861.3	0.000000
862.1	0.000000
862.9	0.035677
863.5	0.000000
864.2	321.101105
864.9	0.000017
865.8	0.000000
867.9	265.526337
868.4	0.000000
869.3	0.000000
870.6	123.540787
871.3	0.000000
871.9	0.080216
872.8	0.000000
873.5	4.524043
874.3	0.032121
875.1	7.089372
875.9	0.000000
876.4	77.694664
877.3	0.308942
878.0	76.457520
878.9	4,908.896484
879.7	0.000000
880.6	0.000046
881.2	0.000000
883.5	0.000000
884.1	0.000000
884.8	0.000000
885.4	0.013234
886.7	90.870956
888.2	0.017049
889.1	0.000000
890.0	0.000000
892.5	0.370888
893.1	0.894671
893.7	0.025686
894.8	62.641815
896.1	320.548370
896.9	0.000000
897.7	81.535332
898.4	0.000001
900.1	0.000000
901.5	95.405922
902.2	0.000000
903.2	0.209322
904.6	124.969406
905.5	384.201965
906.1	0.000000
906.8	0.000000
907.5	0.000000
908.2	0.000000
909.2	3,489.630615
910.0	0.000000
910.9	0.178163
913.1	0.010438
914.2	0.000000
916.5	331.918304
917.4	0.000000
920.3	0.095335
921.5	1,051.460938
922.5	20.049601
925.0	199.101105
926.1	0.000000
928.6	0.000000
929.8	0.458229
930.9	0.581847
931.4	0.000000
932.0	62.623096
932.8	184.753632
933.5	0.000000
934.6	63.192577
938.1	0.000000
938.8	0.000000
941.1	0.370352
942.3	0.000000
943.1	0.013200
944.7	0.000000
946.3	0.078657
947.0	123.872955
947.6	0.000000
948.8	0.000000
949.7	0.000000
951.4	91.305481
952.5	90.870956
953.6	318.878265
954.3	0.000000
955.1	0.000674
956.3	0.000000
957.1	275.111694
957.6	0.000000
959.3	55.263618
961.1	14.477361
962.5	0.000000
963.5	0.000000
964.9	0.000000
965.9	0.020335
966.8	0.031264
967.7	25.921131
972.1	0.000000
973.9	0.000000
976.2	207.765335
977.7	38.901333
979.4	0.000000
980.9	0.000002
981.8	0.023188
982.5	0.000000
983.6	40.228138
984.5	0.000000
985.5	0.000000
987.0	0.773002
987.9	1.021806
989.0	0.000000
989.7	0.000000
990.6	0.000000
993.5	499.914520
994.9	17.670895
995.4	0.000000
996.2	0.000000
997.9	54.004704
1,000.1	0.029123
1,000.8	0.000000
1,002.0	118.603203
1,004.4	0.000000
1,005.5	0.000000
1,006.0	113.645920
1,008.7	0.000000
1,010.1	0.000000
1,010.6	0.000000
1,012.2	0.000000
1,012.9	0.000000
1,014.0	0.021842
1,014.8	0.000000
1,016.7	211.177017
1,017.3	0.000000
1,018.1	0.000000
1,018.6	0.000000
1,019.5	0.000000
1,020.4	264.115509
1,021.8	0.000000
1,022.8	0.000000
1,023.3	0.000000
1,024.0	0.000000
1,024.6	0.012115
1,031.6	0.000000
1,032.2	0.017559
1,035.4	0.000000
1,036.2	50.828796
1,038.5	0.000000
1,041.6	0.000000
1,043.0	0.023984
1,043.9	0.000000
1,044.8	0.000000
1,045.5	0.023555
1,047.6	0.000000
1,049.3	0.000000
1,049.9	386.484192
1,050.4	0.000000
1,051.0	100.123322
1,058.9	0.021842
1,059.5	0.000000
1,060.0	0.000000
1,061.2	0.013200
1,062.0	75.949921
1,062.8	0.000000
1,063.5	0.000000
1,065.0	88.374695
1,065.5	155.158005
1,066.3	157.397659
1,068.2	0.000000
1,072.1	0.000000
1,073.1	158.133163
1,075.1	0.000000
1,076.7	0.000000
1,077.3	517.023132
1,078.6	0.000000
1,079.7	37.674007
1,085.1	139.033951
1,086.9	216.022827
1,089.0	0.000000
1,098.5	0.000000
1,101.0	0.000000
1,103.8	94.180115
1,104.9	0.000000
1,111.1	0.000000
1,112.0	0.025268
1,114.3	0.000000
1,116.3	268.403442
1,117.2	0.000000
1,118.4	0.000000
1,119.0	239.377716
1,120.2	0.000000
1,127.2	268.403442
1,129.0	151.323822
1,131.3	5.292144
1,132.0	211.167923
1,132.6	0.000000
1,133.3	0.000000
1,134.9	14.289343
1,135.8	278.611908
1,136.5	0.000000
1,137.3	216.022827
1,140.6	0.000000
1,141.2	0.000000
1,147.2	0.000000
1,149.3	0.000000
1,151.0	0.000000
1,152.0	313.104462
1,152.7	8.878304
1,153.5	0.000000
1,157.4	0.000000
1,160.7	0.000000
1,162.2	104.069397
1,168.1	0.000000
1,168.8	0.000000
1,169.4	0.000000
1,170.2	90.885269
1,171.3	51.704803
1,175.1	0.000016
1,176.0	17.668131
1,178.2	34.763290
1,178.9	0.000000
1,180.7	0.000000
1,183.2	207.765335
1,184.4	0.017837
1,185.1	0.019264
1,186.3	34.706066
1,186.9	49.268097
1,188.3	432.882874
1,189.8	54.019009
1,190.5	0.000000
1,191.2	0.000000
1,194.0	0.020691
1,194.9	333.346130
1,195.6	0.019637
1,196.3	0.000000
1,196.8	71.543709
1,199.1	0.023555
1,199.8	0.000000
