URL	chrom://pc-3vxg514/ChromeleonLocal/Data/2025/2025_w20.seq/72118.smp/UV_VIS_2.channel/UV_VIS_2.chm
Channel	UV_VIS_2

Injection Information:
Data Vault	ChromeleonLocal
Sequence	2025_w20
Name	CA8393_prep
Number	464
Position	GA6
Comment	
Processing Method	General_ILK
Instrument Method	5-100pct_positive_3min
Type	Calibration Standard
Status	Finished
Inject Time	5/19/2025 1:25:25 PM +02:00
Volume (µl)	5.0000
Dilution Factor	1.0000
Weight	1.0000

Chromatogram Data Information:
Time Min. (min)	0.000000
Time Max. (min)	3.100000
Data Points	931
Detector	UV
Generating Data System	Chromeleon 7.3.2.11814
Exporting Data System	Chromeleon 7.3.2.0
Operator	Instrument Controller
Signal Quantity	Absorbance
Signal Unit	mAU
Signal Min.	-0.265902
Signal Max.	193.244462
Channel	UV_VIS_2
Driver Name	DAD3000.dll
Channel Type	Evaluation
Min. Step (s)	0.2
Max. Step (s)	0.2
Average Step (s)	0.2

Signal Parameter Information:
Signal Info	WVL:254 nm

Chromatogram Data:
Time (min)	Step (s)	Value (mAU)
0.000000	n.a.	0.000000
0.003333	0.2	-0.000158
0.006667	0.2	-0.000973
0.010000	0.2	-0.002813
0.013333	0.2	-0.005261
0.016667	0.2	-0.007449
0.020000	0.2	-0.008866
0.023333	0.2	-0.009780
0.026667	0.2	-0.010950
0.030000	0.2	-0.012744
0.033333	0.2	-0.014801
0.036667	0.2	-0.016638
0.040000	0.2	-0.018098
0.043333	0.2	-0.019261
0.046667	0.2	-0.020605
0.050000	0.2	-0.022932
0.053333	0.2	-0.026575
0.056667	0.2	-0.031151
0.060000	0.2	-0.036143
0.063333	0.2	-0.041047
0.066667	0.2	-0.045099
0.070000	0.2	-0.047565
0.073333	0.2	-0.048483
0.076667	0.2	-0.048601
0.080000	0.2	-0.048458
0.083333	0.2	-0.048231
0.086667	0.2	-0.048260
0.090000	0.2	-0.048836
0.093333	0.2	-0.049973
0.096667	0.2	-0.051894
0.100000	0.2	-0.054979
0.103333	0.2	-0.059056
0.106667	0.2	-0.063409
0.110000	0.2	-0.067439
0.113333	0.2	-0.071023
0.116667	0.2	-0.074306
0.120000	0.2	-0.077235
0.123333	0.2	-0.079401
0.126667	0.2	-0.080581
0.130000	0.2	-0.081199
0.133333	0.2	-0.081816
0.136667	0.2	-0.082415
0.140000	0.2	-0.082553
0.143333	0.2	-0.082076
0.146667	0.2	-0.081470
0.150000	0.2	-0.081418
0.153333	0.2	-0.082151
0.156667	0.2	-0.083415
0.160000	0.2	-0.084941
0.163333	0.2	-0.086608
0.166667	0.2	-0.092263
0.170000	0.2	0.052630
0.173333	0.2	1.396583
0.176667	0.2	6.238255
0.180000	0.2	15.922507
0.183333	0.2	27.924002
0.186667	0.2	37.086540
0.190000	0.2	40.073878
0.193333	0.2	37.653822
0.196667	0.2	33.292397
0.200000	0.2	30.335195
0.203333	0.2	29.956690
0.206667	0.2	30.954998
0.210000	0.2	31.234187
0.213333	0.2	29.576037
0.216667	0.2	26.208495
0.220000	0.2	22.049810
0.223333	0.2	17.904732
0.226667	0.2	14.543645
0.230000	0.2	12.843853
0.233333	0.2	13.038203
0.236667	0.2	14.110164
0.240000	0.2	14.532039
0.243333	0.2	13.465122
0.246667	0.2	11.100629
0.250000	0.2	8.185711
0.253333	0.2	5.448004
0.256667	0.2	3.305516
0.260000	0.2	1.853528
0.263333	0.2	0.983493
0.266667	0.2	0.513825
0.270000	0.2	0.276830
0.273333	0.2	0.154638
0.276667	0.2	0.080587
0.280000	0.2	0.025206
0.283333	0.2	-0.020525
0.286667	0.2	-0.057712
0.290000	0.2	-0.086042
0.293333	0.2	-0.106194
0.296667	0.2	-0.119951
0.300000	0.2	-0.129304
0.303333	0.2	-0.135757
0.306667	0.2	-0.140269
0.310000	0.2	-0.143547
0.313333	0.2	-0.146186
0.316667	0.2	-0.148624
0.320000	0.2	-0.151265
0.323333	0.2	-0.154469
0.326667	0.2	-0.158281
0.330000	0.2	-0.162391
0.333333	0.2	-0.166317
0.336667	0.2	-0.169527
0.340000	0.2	-0.171456
0.343333	0.2	-0.171668
0.346667	0.2	-0.169997
0.350000	0.2	-0.166433
0.353333	0.2	-0.161224
0.356667	0.2	-0.154962
0.360000	0.2	-0.148259
0.363333	0.2	-0.141681
0.366667	0.2	-0.135911
0.370000	0.2	-0.131672
0.373333	0.2	-0.129492
0.376667	0.2	-0.129477
0.380000	0.2	-0.131179
0.383333	0.2	-0.133774
0.386667	0.2	-0.136694
0.390000	0.2	-0.140020
0.393333	0.2	-0.144052
0.396667	0.2	-0.148640
0.400000	0.2	-0.153185
0.403333	0.2	-0.157197
0.406667	0.2	-0.160666
0.410000	0.2	-0.163946
0.413333	0.2	-0.167335
0.416667	0.2	-0.170754
0.420000	0.2	-0.173742
0.423333	0.2	-0.175708
0.426667	0.2	-0.176486
0.430000	0.2	-0.176671
0.433333	0.2	-0.177109
0.436667	0.2	-0.178271
0.440000	0.2	-0.180110
0.443333	0.2	-0.182143
0.446667	0.2	-0.183796
0.450000	0.2	-0.184885
0.453333	0.2	-0.185736
0.456667	0.2	-0.186738
0.460000	0.2	-0.187785
0.463333	0.2	-0.188410
0.466667	0.2	-0.188171
0.470000	0.2	-0.186530
0.473333	0.2	-0.182842
0.476667	0.2	-0.176744
0.480000	0.2	-0.168265
0.483333	0.2	-0.157821
0.486667	0.2	-0.146278
0.490000	0.2	-0.134733
0.493333	0.2	-0.124233
0.496667	0.2	-0.115617
0.500000	0.2	-0.109352
0.503333	0.2	-0.105513
0.506667	0.2	-0.103874
0.510000	0.2	-0.103967
0.513333	0.2	-0.105343
0.516667	0.2	-0.108010
0.520000	0.2	-0.112222
0.523333	0.2	-0.117780
0.526667	0.2	-0.124156
0.530000	0.2	-0.131008
0.533333	0.2	-0.138166
0.536667	0.2	-0.145538
0.540000	0.2	-0.153272
0.543333	0.2	-0.161750
0.546667	0.2	-0.171046
0.550000	0.2	-0.180390
0.553333	0.2	-0.188585
0.556667	0.2	-0.194913
0.560000	0.2	-0.199437
0.563333	0.2	-0.202705
0.566667	0.2	-0.205329
0.570000	0.2	-0.207737
0.573333	0.2	-0.210245
0.576667	0.2	-0.213211
0.580000	0.2	-0.216754
0.583333	0.2	-0.220528
0.586667	0.2	-0.224185
0.590000	0.2	-0.227473
0.593333	0.2	-0.229835
0.596667	0.2	-0.230822
0.600000	0.2	-0.230766
0.603333	0.2	-0.230578
0.606667	0.2	-0.231013
0.610000	0.2	-0.232298
0.613333	0.2	-0.234206
0.616667	0.2	-0.236212
0.620000	0.2	-0.237863
0.623333	0.2	-0.239166
0.626667	0.2	-0.240524
0.630000	0.2	-0.242355
0.633333	0.2	-0.244661
0.636667	0.2	-0.246860
0.640000	0.2	-0.248393
0.643333	0.2	-0.249388
0.646667	0.2	-0.250268
0.650000	0.2	-0.251089
0.653333	0.2	-0.251582
0.656667	0.2	-0.251421
0.660000	0.2	-0.250612
0.663333	0.2	-0.249638
0.666667	0.2	-0.248978
0.670000	0.2	-0.248753
0.673333	0.2	-0.249013
0.676667	0.2	-0.249958
0.680000	0.2	-0.251547
0.683333	0.2	-0.253410
0.686667	0.2	-0.255463
0.690000	0.2	-0.257948
0.693333	0.2	-0.260674
0.696667	0.2	-0.262819
0.700000	0.2	-0.263613
0.703333	0.2	-0.262936
0.706667	0.2	-0.261293
0.710000	0.2	-0.259553
0.713333	0.2	-0.258682
0.716667	0.2	-0.259268
0.720000	0.2	-0.261039
0.723333	0.2	-0.263092
0.726667	0.2	-0.264692
0.730000	0.2	-0.265634
0.733333	0.2	-0.265902
0.736667	0.2	-0.265304
0.740000	0.2	-0.263578
0.743333	0.2	-0.260873
0.746667	0.2	-0.258090
0.750000	0.2	-0.256475
0.753333	0.2	-0.256411
0.756667	0.2	-0.256757
0.760000	0.2	-0.255877
0.763333	0.2	-0.253046
0.766667	0.2	-0.248780
0.770000	0.2	-0.244262
0.773333	0.2	-0.240398
0.776667	0.2	-0.237512
0.780000	0.2	-0.235560
0.783333	0.2	-0.233837
0.786667	0.2	-0.231094
0.790000	0.2	-0.226653
0.793333	0.2	-0.220969
0.796667	0.2	-0.215059
0.800000	0.2	-0.209779
0.803333	0.2	-0.205585
0.806667	0.2	-0.202448
0.810000	0.2	-0.199932
0.813333	0.2	-0.197619
0.816667	0.2	-0.195169
0.820000	0.2	-0.192002
0.823333	0.2	-0.187660
0.826667	0.2	-0.182477
0.830000	0.2	-0.177370
0.833333	0.2	-0.173046
0.836667	0.2	-0.169457
0.840000	0.2	-0.165808
0.843333	0.2	-0.161274
0.846667	0.2	-0.155784
0.850000	0.2	-0.149744
0.853333	0.2	-0.143295
0.856667	0.2	-0.136392
0.860000	0.2	-0.129254
0.863333	0.2	-0.122363
0.866667	0.2	-0.116077
0.870000	0.2	-0.110379
0.873333	0.2	-0.105091
0.876667	0.2	-0.100205
0.880000	0.2	-0.095881
0.883333	0.2	-0.092148
0.886667	0.2	-0.088464
0.890000	0.2	-0.083788
0.893333	0.2	-0.077584
0.896667	0.2	-0.070350
0.900000	0.2	-0.063037
0.903333	0.2	-0.056384
0.906667	0.2	-0.050512
0.910000	0.2	-0.044831
0.913333	0.2	-0.038461
0.916667	0.2	-0.030860
0.920000	0.2	-0.022301
0.923333	0.2	-0.013865
0.926667	0.2	-0.006633
0.930000	0.2	-0.000812
0.933333	0.2	0.004232
0.936667	0.2	0.009378
0.940000	0.2	0.015434
0.943333	0.2	0.022793
0.946667	0.2	0.030952
0.950000	0.2	0.038788
0.953333	0.2	0.045668
0.956667	0.2	0.052081
0.960000	0.2	0.058975
0.963333	0.2	0.066612
0.966667	0.2	0.074438
0.970000	0.2	0.081817
0.973333	0.2	0.088589
0.976667	0.2	0.095202
0.980000	0.2	0.102287
0.983333	0.2	0.109971
0.986667	0.2	0.117989
0.990000	0.2	0.126183
0.993333	0.2	0.134447
0.996667	0.2	0.142563
1.000000	0.2	0.150382
1.003333	0.2	0.157847
1.006667	0.2	0.164953
1.010000	0.2	0.171987
1.013333	0.2	0.179309
1.016667	0.2	0.186802
1.020000	0.2	0.194182
1.023333	0.2	0.201679
1.026667	0.2	0.209943
1.030000	0.2	0.219338
1.033333	0.2	0.229380
1.036667	0.2	0.239191
1.040000	0.2	0.248572
1.043333	0.2	0.258210
1.046667	0.2	0.268786
1.050000	0.2	0.280260
1.053333	0.2	0.292083
1.056667	0.2	0.303929
1.060000	0.2	0.315938
1.063333	0.2	0.328204
1.066667	0.2	0.340496
1.070000	0.2	0.352466
1.073333	0.2	0.363679
1.076667	0.2	0.373820
1.080000	0.2	0.383022
1.083333	0.2	0.391597
1.086667	0.2	0.399585
1.090000	0.2	0.406825
1.093333	0.2	0.413414
1.096667	0.2	0.419757
1.100000	0.2	0.426235
1.103333	0.2	0.433019
1.106667	0.2	0.440066
1.110000	0.2	0.447338
1.113333	0.2	0.455048
1.116667	0.2	0.463499
1.120000	0.2	0.472769
1.123333	0.2	0.482678
1.126667	0.2	0.492918
1.130000	0.2	0.503069
1.133333	0.2	0.512903
1.136667	0.2	0.522801
1.140000	0.2	0.533236
1.143333	0.2	0.543922
1.146667	0.2	0.554194
1.150000	0.2	0.563924
1.153333	0.2	0.573640
1.156667	0.2	0.584136
1.160000	0.2	0.596057
1.163333	0.2	0.609672
1.166667	0.2	0.624940
1.170000	0.2	0.641281
1.173333	0.2	0.657474
1.176667	0.2	0.672362
1.180000	0.2	0.685374
1.183333	0.2	0.696365
1.186667	0.2	0.705575
1.190000	0.2	0.713947
1.193333	0.2	0.722881
1.196667	0.2	0.733216
1.200000	0.2	0.744792
1.203333	0.2	0.757051
1.206667	0.2	0.769460
1.210000	0.2	0.781492
1.213333	0.2	0.792867
1.216667	0.2	0.803901
1.220000	0.2	0.815153
1.223333	0.2	0.826631
1.226667	0.2	0.837742
1.230000	0.2	0.847991
1.233333	0.2	0.857600
1.236667	0.2	0.868257
1.240000	0.2	0.885512
1.243333	0.2	0.923935
1.246667	0.2	1.010988
1.250000	0.2	1.179923
1.253333	0.2	1.448134
1.256667	0.2	1.793524
1.260000	0.2	2.150218
1.263333	0.2	2.432920
1.266667	0.2	2.575437
1.270000	0.2	2.558243
1.273333	0.2	2.414070
1.276667	0.2	2.256031
1.280000	0.2	2.488531
1.283333	0.2	4.332651
1.286667	0.2	10.281720
1.290000	0.2	23.567968
1.293333	0.2	46.344668
1.296667	0.2	77.783747
1.300000	0.2	113.698121
1.303333	0.2	147.992974
1.306667	0.2	174.847317
1.310000	0.2	190.373263
1.313333	0.2	193.244462
1.316667	0.2	184.467149
1.320000	0.2	166.688910
1.323333	0.2	143.365785
1.326667	0.2	117.986861
1.330000	0.2	93.477856
1.333333	0.2	71.851909
1.336667	0.2	54.123061
1.340000	0.2	40.441453
1.343333	0.2	30.362683
1.346667	0.2	23.148578
1.350000	0.2	18.017160
1.353333	0.2	14.300032
1.356667	0.2	11.506302
1.360000	0.2	9.318810
1.363333	0.2	7.555154
1.366667	0.2	6.119204
1.370000	0.2	4.959517
1.373333	0.2	4.042172
1.376667	0.2	3.336846
1.380000	0.2	2.811664
1.383333	0.2	2.433222
1.386667	0.2	2.169107
1.390000	0.2	1.990571
1.393333	0.2	1.873718
1.396667	0.2	1.799498
1.400000	0.2	1.753343
1.403333	0.2	1.724483
1.406667	0.2	1.705278
1.410000	0.2	1.690752
1.413333	0.2	1.678144
1.416667	0.2	1.666647
1.420000	0.2	1.656763
1.423333	0.2	1.649033
1.426667	0.2	1.643624
1.430000	0.2	1.640838
1.433333	0.2	1.640950
1.436667	0.2	1.643834
1.440000	0.2	1.649090
1.443333	0.2	1.655970
1.446667	0.2	1.663506
1.450000	0.2	1.671142
1.453333	0.2	1.678890
1.456667	0.2	1.687112
1.460000	0.2	1.696415
1.463333	0.2	1.707269
1.466667	0.2	1.719714
1.470000	0.2	1.733404
1.473333	0.2	1.747522
1.476667	0.2	1.760860
1.480000	0.2	1.772350
1.483333	0.2	1.781522
1.486667	0.2	1.788639
1.490000	0.2	1.794471
1.493333	0.2	1.799973
1.496667	0.2	1.806022
1.500000	0.2	1.813005
1.503333	0.2	1.820766
1.506667	0.2	1.829235
1.510000	0.2	1.838682
1.513333	0.2	1.849280
1.516667	0.2	1.860883
1.520000	0.2	1.873278
1.523333	0.2	1.886395
1.526667	0.2	1.900190
1.530000	0.2	1.914471
1.533333	0.2	1.928840
1.536667	0.2	1.942701
1.540000	0.2	1.955562
1.543333	0.2	1.967539
1.546667	0.2	1.979252
1.550000	0.2	1.991250
1.553333	0.2	2.003882
1.556667	0.2	2.017368
1.560000	0.2	2.031690
1.563333	0.2	2.046755
1.566667	0.2	2.062551
1.570000	0.2	2.078837
1.573333	0.2	2.095002
1.576667	0.2	2.110400
1.580000	0.2	2.124716
1.583333	0.2	2.137906
1.586667	0.2	2.149850
1.590000	0.2	2.160366
1.593333	0.2	2.169525
1.596667	0.2	2.177730
1.600000	0.2	2.185651
1.603333	0.2	2.193998
1.606667	0.2	2.203222
1.610000	0.2	2.213477
1.613333	0.2	2.224827
1.616667	0.2	2.237261
1.620000	0.2	2.250323
1.623333	0.2	2.263233
1.626667	0.2	2.275657
1.630000	0.2	2.287843
1.633333	0.2	2.300038
1.636667	0.2	2.312297
1.640000	0.2	2.324499
1.643333	0.2	2.336295
1.646667	0.2	2.347626
1.650000	0.2	2.359100
1.653333	0.2	2.371362
1.656667	0.2	2.384462
1.660000	0.2	2.397995
1.663333	0.2	2.411583
1.666667	0.2	2.425314
1.670000	0.2	2.439678
1.673333	0.2	2.454893
1.676667	0.2	2.470452
1.680000	0.2	2.485493
1.683333	0.2	2.499613
1.686667	0.2	2.513222
1.690000	0.2	2.527119
1.693333	0.2	2.541861
1.696667	0.2	2.557357
1.700000	0.2	2.572892
1.703333	0.2	2.587613
1.706667	0.2	2.601131
1.710000	0.2	2.613722
1.713333	0.2	2.626032
1.716667	0.2	2.638628
1.720000	0.2	2.651938
1.723333	0.2	2.666324
1.726667	0.2	2.681936
1.730000	0.2	2.698567
1.733333	0.2	2.715603
1.736667	0.2	2.732162
1.740000	0.2	2.747400
1.743333	0.2	2.760857
1.746667	0.2	2.772802
1.750000	0.2	2.784176
1.753333	0.2	2.795981
1.756667	0.2	2.808791
1.760000	0.2	2.822884
1.763333	0.2	2.838758
1.766667	0.2	2.857173
1.770000	0.2	2.878846
1.773333	0.2	2.904636
1.776667	0.2	2.935751
1.780000	0.2	2.972922
1.783333	0.2	3.015177
1.786667	0.2	3.059902
1.790000	0.2	3.104234
1.793333	0.2	3.146013
1.796667	0.2	3.183645
1.800000	0.2	3.215803
1.803333	0.2	3.241706
1.806667	0.2	3.261445
1.810000	0.2	3.275573
1.813333	0.2	3.284461
1.816667	0.2	3.288185
1.820000	0.2	3.286961
1.823333	0.2	3.281807
1.826667	0.2	3.274496
1.830000	0.2	3.266699
1.833333	0.2	3.259669
1.836667	0.2	3.254568
1.840000	0.2	3.252105
1.843333	0.2	3.251952
1.846667	0.2	3.253424
1.850000	0.2	3.256642
1.853333	0.2	3.262586
1.856667	0.2	3.272215
1.860000	0.2	3.285448
1.863333	0.2	3.300942
1.866667	0.2	3.317039
1.870000	0.2	3.332851
1.873333	0.2	3.348478
1.876667	0.2	3.364239
1.880000	0.2	3.379833
1.883333	0.2	3.394591
1.886667	0.2	3.408532
1.890000	0.2	3.422591
1.893333	0.2	3.437605
1.896667	0.2	3.453594
1.900000	0.2	3.470097
1.903333	0.2	3.486617
1.906667	0.2	3.502756
1.910000	0.2	3.518350
1.913333	0.2	3.533538
1.916667	0.2	3.548748
1.920000	0.2	3.564569
1.923333	0.2	3.581331
1.926667	0.2	3.598853
1.930000	0.2	3.616481
1.933333	0.2	3.633262
1.936667	0.2	3.648296
1.940000	0.2	3.661143
1.943333	0.2	3.672080
1.946667	0.2	3.681822
1.950000	0.2	3.691007
1.953333	0.2	3.700158
1.956667	0.2	3.709680
1.960000	0.2	3.719856
1.963333	0.2	3.731363
1.966667	0.2	3.745255
1.970000	0.2	3.761878
1.973333	0.2	3.780432
1.976667	0.2	3.799923
1.980000	0.2	3.820226
1.983333	0.2	3.842219
1.986667	0.2	3.866687
1.990000	0.2	3.893201
1.993333	0.2	3.920418
1.996667	0.2	3.947211
2.000000	0.2	3.973627
2.003333	0.2	4.001094
2.006667	0.2	4.031500
2.010000	0.2	4.066157
2.013333	0.2	4.105414
2.016667	0.2	4.148064
2.020000	0.2	4.190675
2.023333	0.2	4.228275
2.026667	0.2	4.256385
2.030000	0.2	4.272633
2.033333	0.2	4.276990
2.036667	0.2	4.271410
2.040000	0.2	4.259371
2.043333	0.2	4.245104
2.046667	0.2	4.232689
2.050000	0.2	4.225091
2.053333	0.2	4.223341
2.056667	0.2	4.226527
2.060000	0.2	4.232911
2.063333	0.2	4.241509
2.066667	0.2	4.252525
2.070000	0.2	4.266309
2.073333	0.2	4.282492
2.076667	0.2	4.300101
2.080000	0.2	4.318023
2.083333	0.2	4.335487
2.086667	0.2	4.352454
2.090000	0.2	4.369509
2.093333	0.2	4.387133
2.096667	0.2	4.405200
2.100000	0.2	4.423220
2.103333	0.2	4.440744
2.106667	0.2	4.457460
2.110000	0.2	4.473250
2.113333	0.2	4.488381
2.116667	0.2	4.503517
2.120000	0.2	4.519342
2.123333	0.2	4.536248
2.126667	0.2	4.554370
2.130000	0.2	4.573505
2.133333	0.2	4.592991
2.136667	0.2	4.612091
2.140000	0.2	4.630412
2.143333	0.2	4.648028
2.146667	0.2	4.665500
2.150000	0.2	4.683653
2.153333	0.2	4.702974
2.156667	0.2	4.723026
2.160000	0.2	4.742626
2.163333	0.2	4.760856
2.166667	0.2	4.777709
2.170000	0.2	4.793719
2.173333	0.2	4.809283
2.176667	0.2	4.824463
2.180000	0.2	4.839257
2.183333	0.2	4.853918
2.186667	0.2	4.869104
2.190000	0.2	4.885487
2.193333	0.2	4.902823
2.196667	0.2	4.919990
2.200000	0.2	4.936369
2.203333	0.2	4.952482
2.206667	0.2	4.969031
2.210000	0.2	4.985990
2.213333	0.2	5.002948
2.216667	0.2	5.019812
2.220000	0.2	5.036809
2.223333	0.2	5.054097
2.226667	0.2	5.071622
2.230000	0.2	5.089235
2.233333	0.2	5.106853
2.236667	0.2	5.124586
2.240000	0.2	5.142800
2.243333	0.2	5.161743
2.246667	0.2	5.181277
2.250000	0.2	5.201363
2.253333	0.2	5.222317
2.256667	0.2	5.244034
2.260000	0.2	5.265273
2.263333	0.2	5.284437
2.266667	0.2	5.301110
2.270000	0.2	5.316356
2.273333	0.2	5.331563
2.276667	0.2	5.347378
2.280000	0.2	5.363482
2.283333	0.2	5.379041
2.286667	0.2	5.393417
2.290000	0.2	5.406733
2.293333	0.2	5.420011
2.296667	0.2	5.434491
2.300000	0.2	5.450664
2.303333	0.2	5.468163
2.306667	0.2	5.486267
2.310000	0.2	5.504293
2.313333	0.2	5.521871
2.316667	0.2	5.539101
2.320000	0.2	5.556403
2.323333	0.2	5.574196
2.326667	0.2	5.592745
2.330000	0.2	5.612181
2.333333	0.2	5.632514
2.336667	0.2	5.653521
2.340000	0.2	5.674578
2.343333	0.2	5.694878
2.346667	0.2	5.714128
2.350000	0.2	5.732841
2.353333	0.2	5.751683
2.356667	0.2	5.770789
2.360000	0.2	5.789856
2.363333	0.2	5.808615
2.366667	0.2	5.826962
2.370000	0.2	5.844739
2.373333	0.2	5.861792
2.376667	0.2	5.878288
2.380000	0.2	5.894850
2.383333	0.2	5.912369
2.386667	0.2	5.931566
2.390000	0.2	5.952618
2.393333	0.2	5.974978
2.396667	0.2	5.997504
2.400000	0.2	6.019124
2.403333	0.2	6.039402
2.406667	0.2	6.058306
2.410000	0.2	6.075929
2.413333	0.2	6.092672
2.416667	0.2	6.109381
2.420000	0.2	6.127127
2.423333	0.2	6.146429
2.426667	0.2	6.166797
2.430000	0.2	6.187388
2.433333	0.2	6.207801
2.436667	0.2	6.228129
2.440000	0.2	6.248409
2.443333	0.2	6.268427
2.446667	0.2	6.288396
2.450000	0.2	6.309433
2.453333	0.2	6.333314
2.456667	0.2	6.361930
2.460000	0.2	6.396483
2.463333	0.2	6.436804
2.466667	0.2	6.481299
2.470000	0.2	6.527451
2.473333	0.2	6.572356
2.476667	0.2	6.612922
2.480000	0.2	6.646142
2.483333	0.2	6.669988
2.486667	0.2	6.684484
2.490000	0.2	6.691720
2.493333	0.2	6.694783
2.496667	0.2	6.696904
2.500000	0.2	6.700876
2.503333	0.2	6.708181
2.506667	0.2	6.718851
2.510000	0.2	6.732298
2.513333	0.2	6.747891
2.516667	0.2	6.765140
2.520000	0.2	6.784234
2.523333	0.2	6.806745
2.526667	0.2	6.835543
2.530000	0.2	6.873656
2.533333	0.2	6.923206
2.536667	0.2	6.984985
2.540000	0.2	7.057948
2.543333	0.2	7.138477
2.546667	0.2	7.220001
2.550000	0.2	7.294037
2.553333	0.2	7.352949
2.556667	0.2	7.392528
2.560000	0.2	7.412886
2.563333	0.2	7.417896
2.566667	0.2	7.413664
2.570000	0.2	7.406957
2.573333	0.2	7.403891
2.576667	0.2	7.408416
2.580000	0.2	7.421604
2.583333	0.2	7.442628
2.586667	0.2	7.469553
2.590000	0.2	7.499058
2.593333	0.2	7.527259
2.596667	0.2	7.551933
2.600000	0.2	7.573460
2.603333	0.2	7.593783
2.606667	0.2	7.615250
2.610000	0.2	7.639960
2.613333	0.2	7.669178
2.616667	0.2	7.702976
2.620000	0.2	7.740333
2.623333	0.2	7.779879
2.626667	0.2	7.820468
2.630000	0.2	7.860987
2.633333	0.2	7.900387
2.636667	0.2	7.938117
2.640000	0.2	7.974100
2.643333	0.2	8.008375
2.646667	0.2	8.041013
2.650000	0.2	8.072441
2.653333	0.2	8.103621
2.656667	0.2	8.135662
2.660000	0.2	8.169359
2.663333	0.2	8.205118
2.666667	0.2	8.242922
2.670000	0.2	8.282189
2.673333	0.2	8.321971
2.676667	0.2	8.361427
2.680000	0.2	8.400231
2.683333	0.2	8.438902
2.686667	0.2	8.478758
2.690000	0.2	8.521304
2.693333	0.2	8.567507
2.696667	0.2	8.617248
2.700000	0.2	8.669353
2.703333	0.2	8.722163
2.706667	0.2	8.774062
2.710000	0.2	8.823781
2.713333	0.2	8.870480
2.716667	0.2	8.913751
2.720000	0.2	8.953890
2.723333	0.2	8.992185
2.726667	0.2	9.030749
2.730000	0.2	9.071502
2.733333	0.2	9.114938
2.736667	0.2	9.160212
2.740000	0.2	9.206537
2.743333	0.2	9.253946
2.746667	0.2	9.302505
2.750000	0.2	9.351328
2.753333	0.2	9.398695
2.756667	0.2	9.443097
2.760000	0.2	9.484397
2.763333	0.2	9.524125
2.766667	0.2	9.564215
2.770000	0.2	9.605341
2.773333	0.2	9.646825
2.776667	0.2	9.688068
2.780000	0.2	9.729672
2.783333	0.2	9.772880
2.786667	0.2	9.818218
2.790000	0.2	9.865076
2.793333	0.2	9.911893
2.796667	0.2	9.956663
2.800000	0.2	9.998484
2.803333	0.2	10.038442
2.806667	0.2	10.078529
2.810000	0.2	10.120125
2.813333	0.2	10.163325
2.816667	0.2	10.207912
2.820000	0.2	10.254796
2.823333	0.2	10.305312
2.826667	0.2	10.359229
2.830000	0.2	10.414137
2.833333	0.2	10.466921
2.836667	0.2	10.515932
2.840000	0.2	10.561758
2.843333	0.2	10.606377
2.846667	0.2	10.651834
2.850000	0.2	10.698862
2.853333	0.2	10.746698
2.856667	0.2	10.795001
2.860000	0.2	10.845101
2.863333	0.2	10.898156
2.866667	0.2	10.952923
2.870000	0.2	11.006165
2.873333	0.2	11.054920
2.876667	0.2	11.098582
2.880000	0.2	11.139126
2.883333	0.2	11.179495
2.886667	0.2	11.221573
2.890000	0.2	11.265140
2.893333	0.2	11.309448
2.896667	0.2	11.355658
2.900000	0.2	11.405730
2.903333	0.2	11.459213
2.906667	0.2	11.512686
2.910000	0.2	11.562128
2.913333	0.2	11.605562
2.916667	0.2	11.643888
2.920000	0.2	11.679773
2.923333	0.2	11.716078
2.926667	0.2	11.754741
2.930000	0.2	11.796330
2.933333	0.2	11.839962
2.936667	0.2	11.883468
2.940000	0.2	11.924565
2.943333	0.2	11.962321
2.946667	0.2	11.997160
2.950000	0.2	12.030165
2.953333	0.2	12.062790
2.956667	0.2	12.096465
2.960000	0.2	12.132249
2.963333	0.2	12.170901
2.966667	0.2	12.212464
2.970000	0.2	12.255689
2.973333	0.2	12.298505
2.976667	0.2	12.339116
2.980000	0.2	12.376339
2.983333	0.2	12.409102
2.986667	0.2	12.436674
2.990000	0.2	12.459832
2.993333	0.2	12.481188
2.996667	0.2	12.503891
3.000000	0.2	12.529887
3.003333	0.2	12.559320
3.006667	0.2	12.591303
3.010000	0.2	12.624883
3.013333	0.2	12.659164
3.016667	0.2	12.692847
3.020000	0.2	12.724197
3.023333	0.2	12.751655
3.026667	0.2	12.774770
3.030000	0.2	12.794625
3.033333	0.2	12.813077
3.036667	0.2	12.831571
3.040000	0.2	12.850567
3.043333	0.2	12.869844
3.046667	0.2	12.889287
3.050000	0.2	12.909442
3.053333	0.2	12.931093
3.056667	0.2	12.954044
3.060000	0.2	12.976472
3.063333	0.2	12.996013
3.066667	0.2	13.011908
3.070000	0.2	13.025927
3.073333	0.2	13.041028
3.076667	0.2	13.059225
3.080000	0.2	13.080263
3.083333	0.2	13.101744
3.086667	0.2	13.121444
3.090000	0.2	13.139849
3.093333	0.2	13.159279
3.096667	0.2	13.180790
3.100000	0.2	13.202737
