URL	chrom://pc-3vxg514/ChromeleonLocal/Data/2025/2025_w20.seq/72118.smp/ISQEC.xraw
Channel	UV_VIS_2

Injection Information:
Data Vault	ChromeleonLocal
Sequence	2025_w20
Name	CA8393_prep
Number	464
Position	GA6
Comment	
Processing Method	General_ILK
Instrument Method	5-100pct_positive_3min
Type	Calibration Standard
Status	Finished
Inject Time	5/19/2025 1:25:25 PM +02:00
Volume (µl)	5.0000
Dilution Factor	1.0000
Weight	1.0000

Raw Data Information:
Data Points	1211
Mass Min. (m/z)	100.000000
Mass Max. (m/z)	1,200.092043
Retention Time (min)	1.312687
Mass Resolution	0.500000
Tolerance Unit	Amu
Scan Number	587
Scan Type	+ c ESI sid=20.00 Full ms [100.000-1200.000]
Is Centroid Scan	True
Base Peak Mass	348.128601
Base Peak Intensity	48,426,932.000000
Total Ion Count	71,605,869.796248

Raw Data:
Mass (m/z)	Value (counts)
100.7	44,311.398438
101.4	110,153.500000
102.5	16,038.044922
103.6	4,531.166016
104.6	387.614807
105.7	2,714.673340
106.4	0.346695
107.2	1,745.944702
108.2	0.284799
109.4	9.546866
110.3	7,758.886230
110.9	0.690146
112.3	55.697861
112.9	0.000011
114.0	0.448936
115.0	1,927.589600
115.7	3,740.662598
116.8	0.003519
117.9	3,403.747803
118.6	430.778717
119.8	2,318.041260
120.5	2,397.236328
121.4	0.075550
122.4	8.050634
123.4	154.198242
124.5	0.006109
125.3	0.160115
126.2	390.922638
127.0	0.016970
127.6	228.549713
128.6	1,971.080444
129.2	1,272.253296
130.5	11,671.371094
131.3	661.694946
132.8	2,475.541748
133.5	578.793640
134.5	18.414579
135.3	69.192398
136.2	0.115493
138.1	34.675983
138.7	379.661987
139.2	165.822037
140.2	928.256287
141.8	816.591309
142.8	3,245.011719
143.3	2,447.555420
144.2	0.425973
145.0	0.002634
145.6	0.490886
146.2	4.209791
147.3	943.700867
147.8	283.666931
148.6	4,786.628906
149.6	698.827881
151.5	282.670776
152.4	0.213018
153.4	900.797241
154.3	174.196716
155.1	2,558.434326
156.0	784.827271
156.9	468.632721
158.0	0.028045
159.2	197.151962
160.1	0.489642
161.1	8.171420
162.3	0.272384
162.9	0.782881
163.5	4,112.338867
164.5	577.101746
165.1	0.014504
165.9	0.005192
166.6	0.186638
167.7	0.297220
168.2	0.008030
169.3	2,807.663574
170.9	1,147.383545
171.5	1,276.471558
172.0	2,152.498779
172.7	260.397552
173.8	155.916794
174.5	2,484.541992
175.3	10,545.472656
176.2	2,203.443115
176.9	0.030748
177.4	793.988037
178.3	145.002243
179.3	2,946.595947
179.9	0.814617
180.7	3.826899
182.1	1,709.309204
182.6	254.690262
183.4	3,483.767334
184.1	3,342.758301
184.8	1,114.082397
186.1	9,645.022461
186.6	7,902.103027
188.6	158.430084
189.8	1,164.984375
190.3	603.058228
191.3	21.072765
192.6	9,098.382813
193.8	10,994.203125
194.4	10,249.765625
195.4	2,852.732178
196.4	1,800.768433
197.1	646.345398
197.8	0.107129
198.4	1,251.824707
199.4	659.508423
200.5	987.583313
201.5	7.427644
202.5	3,048.583740
204.0	12.803997
205.1	0.075165
206.4	71.005028
207.2	4.730630
208.1	0.511114
208.7	15.537346
209.6	0.615167
211.0	150.151566
211.8	0.682827
212.9	0.149854
213.9	209.922623
214.7	0.000018
216.3	100.857689
216.9	735.135620
217.5	0.126370
218.1	450.161926
219.1	15,183.966797
219.7	7,370.368652
220.6	6,199.136230
221.5	1,684.677490
222.3	29,013.505859
223.7	6,551.051758
224.4	20,545.511719
225.3	1,011.941711
226.1	0.314549
226.9	1,333.602783
228.0	1,096.322144
229.0	369.119995
229.7	2.036978
230.9	0.001295
231.8	117.020782
233.0	0.270627
233.7	8.043614
234.5	897.477112
235.4	0.011934
235.9	462.294586
237.0	0.109837
237.9	0.000002
238.8	1,366.005859
239.7	2,024.974487
240.2	0.234523
241.1	3,649.724854
241.8	976.741150
242.5	14,083.931641
243.1	9,547.664063
244.0	2,033.403442
245.0	348.248108
246.4	1,140.458008
247.1	0.035112
248.0	0.009068
249.1	89.383598
250.0	0.050300
251.4	1,667.391968
252.2	0.214618
252.8	1,467.464600
253.7	847.116699
254.6	172.663910
255.4	0.905270
256.3	4.401473
256.9	0.027164
257.5	3,130.112793
258.4	5,388.828613
259.4	257.106201
260.3	0.008083
260.9	0.000054
261.5	947.218506
262.2	275.218170
263.4	2,666.008789
263.9	0.532474
265.0	0.075340
265.8	854.129211
266.3	177.083969
266.8	1,519.767334
267.6	0.343425
268.4	0.035785
268.9	22.052637
269.8	2,162.614746
270.3	1,418.139648
271.6	418.363861
272.5	0.077569
273.2	264.973206
274.3	1,601.161011
275.2	361.404938
275.8	14,793.862305
276.5	9,662.752930
277.0	843.584351
277.6	373.153229
278.5	2,545.950928
279.1	21,197.115234
280.2	1,764.043457
281.0	0.910853
282.3	5,824.496094
283.0	0.050214
284.4	1,112.055908
285.1	0.093684
285.7	0.064397
286.3	1,507.191650
287.8	1,084.898804
288.3	152.687775
289.1	0.000008
290.4	0.002522
291.0	1,110.512451
291.9	1.711206
292.5	0.000025
293.7	0.401302
294.3	0.000039
295.1	0.244078
296.0	0.107738
296.8	0.555835
297.6	778.090332
298.3	360.767578
298.9	0.074022
299.6	0.164501
300.3	17.196928
301.1	1,629.982544
301.7	316.820740
302.6	507.593262
303.8	1,644.326660
304.9	4,842.479004
305.6	280.286285
306.2	2,626.305420
307.7	0.019687
308.4	0.046927
308.9	0.008186
309.7	0.064647
310.3	933.662781
311.0	857.416504
311.9	3,380.687256
313.0	166.805557
314.1	283.148743
315.2	1,448.668701
316.3	0.061184
317.7	7,549.946777
318.3	11,344.093750
318.8	2,665.356689
320.2	2,610,685.750000
321.4	317,195.187500
322.3	56,849.714844
323.0	4,542.389648
323.6	2,156.393066
324.3	1,661.990356
324.9	91.942398
325.7	2,013.105103
326.3	407.325500
326.9	0.311925
327.5	0.197909
328.3	1,165.530640
329.2	0.000005
329.9	1,199.532959
330.6	0.057572
331.8	0.084914
333.6	1,451.928589
334.4	12,753.454102
335.4	5,423.460449
336.3	5,546.084961
338.1	8,269.133789
338.8	2,257.768066
339.5	1,562.708496
340.1	0.206339
341.0	324.846802
341.9	0.285008
342.6	0.247310
343.2	0.171747
343.7	2,714.525391
344.7	1,321.365234
345.6	55,101.683594
346.2	192,145.328125
346.8	25,775.689453
348.1	48,426,932.000000
349.3	9,833,754.000000
350.3	1,192,971.125000
351.5	82,568.359375
352.4	7,227.970703
353.8	15,102.056641
354.3	51,239.019531
355.3	6,754.866211
356.4	1,566.720093
357.1	0.018589
357.9	2,731.348145
359.2	8,389.784180
359.8	0.773459
361.4	27,911.933594
362.3	95,170.445313
363.2	16,319.877930
364.2	10,381.889648
365.2	4,074.337891
366.1	12,588.053711
366.7	11,213.594727
367.6	3,114.374512
368.6	1,712.506104
369.4	10,750.283203
370.1	63,205.660156
371.0	18,746.949219
372.0	3,954.364502
372.7	0.166657
373.3	0.008831
374.5	1,672.812622
375.1	2,267.706543
375.8	0.237557
376.4	206.705902
377.7	2,455.027832
378.6	10,363.506836
379.1	63.476864
379.7	2,788.247559
380.8	7,938.388672
382.1	4,723.014648
383.3	5,198.652344
384.0	309.565552
384.8	1,573.462524
385.7	36,684.492188
386.2	79,509.273438
387.1	27,352.361328
388.1	11,066.373047
389.1	709,675.812500
390.2	160,007.437500
390.9	18,639.980469
391.6	4,802.344238
392.3	1,609.824341
393.0	2,897.257324
394.0	18,872.388672
394.8	3,858.770752
396.4	6,346.131348
397.3	3,879.148926
398.3	4,279.338867
398.8	0.036923
400.2	1,958.588501
401.1	63.875195
402.2	5,093.160156
403.2	1,218.628906
404.5	1,366.392578
405.9	10.307256
406.6	0.001608
407.5	1,725.180054
408.1	3,888.500244
409.4	0.628309
411.1	1,564,037.000000
412.2	354,272.812500
413.2	63,823.843750
414.3	5,133.576172
415.1	526.525818
416.1	5,689.373535
417.1	5,457.536133
418.1	545.075500
418.9	0.000000
419.9	1,162.609253
420.7	987.280151
421.5	0.228636
422.6	973.524902
423.3	0.001080
424.3	0.000520
425.8	2,074.741943
427.3	9,349.872070
428.2	2,783.820801
429.4	1,897.916626
429.9	173.547714
430.6	0.014362
431.3	588.577148
431.9	343.705475
432.5	2,101.400879
433.4	4,186.806152
434.6	0.415707
435.3	788.344604
436.2	1,635.799072
436.9	0.110693
437.5	0.030525
438.2	0.000002
438.8	2,188.896973
439.8	0.204120
440.4	919.134216
441.3	303.024872
442.5	0.000000
443.2	4,244.062988
444.0	3,791.325928
444.5	0.048275
446.0	1,849.994751
446.7	0.391873
447.7	254.312424
448.5	272.119873
449.1	362.710419
450.0	979.276733
450.7	0.000000
452.0	16,276.339844
452.8	10,201.612305
453.8	3,486.352539
454.5	1,555.228516
455.0	225.965439
456.1	4,681.784668
457.3	144.108612
458.3	0.491794
459.7	504.549225
460.3	0.000011
461.3	3,485.489502
462.2	1,395.194824
462.7	0.203973
463.8	0.012732
465.2	0.000001
467.0	0.422443
467.9	67.358803
468.6	1,843.713623
469.3	2,104.609131
470.1	0.000000
471.5	1,826.837891
472.6	393.142273
474.0	0.259678
475.2	4,662.531738
475.7	1,763.672241
476.2	2.699904
477.1	72.264977
478.1	3,274.760498
478.7	0.251959
479.6	1,747.253418
480.2	4,879.850098
480.9	2,843.270508
481.7	887.645020
482.3	107.288651
482.9	0.000004
483.5	0.155141
484.1	10.450337
485.0	1,852.912720
485.7	5,303.496094
486.2	997.746460
487.3	4,026.388428
487.9	1,042.928223
488.9	2,650.692139
489.8	2,647.440186
490.8	17.476271
492.0	0.075015
492.8	943.823547
494.0	38.096767
495.1	1,687.808716
495.9	0.000002
497.1	207.311142
498.3	5,247.881836
499.2	1,958.820190
500.1	121.262985
501.5	0.002884
502.7	0.040312
503.5	72.158379
504.1	0.000032
505.7	2,301.520264
506.6	213.807983
508.3	9.456620
509.4	0.062238
510.2	0.000027
510.7	0.000000
511.7	0.000000
512.4	582.161499
513.8	0.000000
514.8	3,451.541504
515.8	884.695618
516.5	0.000000
517.1	0.173880
517.8	42.966740
519.0	1,816.648071
520.2	206.734573
521.1	811.058044
521.9	422.022583
522.9	62.912521
523.5	373.034546
524.4	67.118248
525.1	0.000006
526.3	399.132568
527.2	534.418213
528.0	308.697662
529.4	433.587738
530.8	186.633408
532.0	2.704695
532.6	0.076700
533.1	1,998.636475
533.8	0.000000
534.6	6,427.826172
535.3	0.000034
537.0	111.439919
538.1	0.162084
539.6	0.199074
540.8	17.835726
541.5	0.013582
542.2	0.000000
542.9	0.267673
543.4	5.373656
544.5	0.000000
545.5	0.098480
546.4	4,026.932617
547.5	795.093262
548.4	637.332153
549.3	263.631989
550.3	1,030.941528
551.1	0.000008
552.2	3,243.645264
552.7	2.133961
554.4	634.098328
554.9	19.307749
556.0	223.320496
557.2	8,330.707031
557.8	0.248970
558.7	837.128906
559.2	0.036193
560.3	0.116197
560.9	0.000000
561.7	2,855.137207
562.8	111.886261
563.4	0.000000
564.4	0.000005
565.0	0.093010
566.1	7,816.300781
567.0	6,762.400391
567.7	3,766.545410
568.3	713.480896
568.9	9,670.105469
569.5	12,838.639648
570.1	5,740.795410
570.6	330.725769
571.4	0.000000
572.4	0.219042
573.2	0.000000
574.3	195.007355
575.9	0.000000
577.0	0.414908
577.8	0.026654
578.6	0.000016
579.3	0.000000
579.9	0.000020
580.4	0.000000
581.7	883.802734
582.4	0.000000
582.9	0.004405
583.4	267.699310
584.0	503.924469
585.1	94.776428
585.7	0.000000
586.3	0.000000
587.0	0.000001
587.7	194.598221
588.5	0.000000
589.9	5,135.036133
591.0	5,539.813965
592.2	1,647.655396
593.0	0.000000
593.6	0.000000
594.6	0.000000
595.7	1,347.110840
597.6	656.810852
598.4	0.002240
598.9	959.623840
600.3	233.642197
601.3	258.294189
602.8	0.000000
603.4	0.000000
604.0	0.000000
605.0	0.000004
605.6	0.000000
606.3	8,947.895508
607.3	11,219.664063
607.9	7,574.660156
608.7	7,926.799316
609.7	2,765.793945
610.6	45.135315
611.4	0.063065
612.2	266.394379
612.9	0.004312
613.9	565.649170
614.5	0.000000
615.5	3,660.089355
616.2	0.024652
616.8	0.010295
617.8	0.000000
618.4	0.000000
618.9	0.000000
620.0	0.000000
620.6	0.000000
621.2	0.001041
622.4	0.000000
623.4	0.009929
624.3	112.630173
625.3	0.000000
625.9	806.124023
627.0	2,874.878906
627.8	0.000000
629.4	1,161.004395
630.1	0.001642
631.1	0.000000
631.8	0.000000
633.0	0.033104
633.6	0.090085
634.4	181.983246
635.0	0.000000
636.0	0.000000
636.9	575.363892
637.8	2,632.460693
638.7	0.000000
639.2	0.000000
640.0	0.000000
641.7	0.027666
642.6	0.000000
644.1	0.000034
644.7	0.000018
645.2	0.000000
645.9	0.000000
647.6	0.000000
648.6	0.031987
650.0	3.413615
650.6	0.000000
651.2	0.000606
652.2	0.000000
653.3	1,786.370361
654.3	0.000001
655.3	0.063390
656.0	0.113513
656.5	0.000000
657.0	0.000000
657.8	0.000000
659.2	15,463.930664
659.7	2.194579
660.5	6,770.078125
661.8	4,817.639648
662.5	3,635.525635
663.2	0.829259
663.8	0.000000
664.5	0.000005
665.0	0.000000
665.6	0.000000
667.0	850.197754
667.8	2,192.567627
668.7	1,118.538208
669.5	189.797791
670.4	0.000000
671.9	2,097.935547
672.9	4,420.185059
673.7	0.000000
675.2	0.000000
676.6	0.000000
677.1	0.000000
677.9	0.000000
678.5	0.000000
679.8	3,959.162354
680.6	0.000000
681.6	1,962.217529
682.3	2,944.206299
683.1	0.011612
684.0	3,938.190674
684.8	0.000000
686.0	1,308.688477
687.6	0.000002
688.2	1,765.333496
689.3	0.044990
690.3	92.415962
691.0	0.000000
691.9	0.000000
692.6	190.063675
693.9	0.973411
694.4	33,850.906250
695.2	1,220,440.250000
696.2	788,288.125000
697.2	158,112.765625
698.2	27,288.980469
699.3	13,766.280273
699.8	0.426569
700.7	0.030836
701.3	0.023967
702.2	0.000066
703.2	338.221405
703.9	2,097.471436
704.8	0.000000
705.4	2,226.360352
706.3	18,785.255859
706.8	1,798.355591
707.7	0.226558
708.5	6,268.228516
709.6	0.000000
710.6	0.123772
711.5	1,015.414307
712.2	0.000012
713.0	421.305237
713.6	388.546753
715.1	140.064774
716.0	93.654526
717.2	439,229.406250
718.2	207,695.531250
719.2	56,478.050781
720.1	17,718.185547
721.1	25,913.533203
721.7	37,250.460938
722.3	401,045.437500
723.0	452,541.968750
724.2	61,716.093750
725.0	3,185.102539
725.8	8,796.396484
726.6	13,682.890625
727.4	7,570.388672
728.0	50.025913
728.9	1,927.828735
729.6	0.000000
730.2	0.000000
731.1	7,147.063477
731.7	1.192049
732.3	0.034882
732.9	2,389.120605
733.5	6,227.647461
734.2	7,624.896973
735.1	299.676605
736.2	5,768.587891
736.8	296.950989
738.2	2,836.834473
739.0	0.000000
739.7	269.277344
740.9	5,164.606934
741.9	10,669.201172
742.7	129.208679
743.5	3,075.302002
744.3	1,700.925171
745.0	3,117.651611
745.6	0.000000
746.8	0.000000
747.4	0.000000
748.2	0.000000
749.0	0.439020
750.1	729.107971
751.7	3,616.158936
752.2	0.284711
753.0	0.000000
754.8	3,487.775391
755.5	0.047004
757.0	0.000000
758.1	2,827.430908
759.3	839.935608
759.9	503.188538
760.5	0.039611
761.7	452.502533
762.4	0.000000
763.0	0.015613
763.9	0.000000
764.6	0.000000
765.3	0.000000
766.0	0.031751
766.5	0.000000
767.3	0.007108
768.2	0.000000
769.6	79.116859
770.5	1.007307
771.8	0.023959
772.6	0.000000
773.4	0.000000
774.6	1,144.489136
775.5	0.000000
776.9	0.000000
778.2	1,094.885986
779.1	205.990311
780.0	0.000000
780.6	3,749.484619
781.6	0.000000
782.3	624.803162
783.0	925.628296
784.2	2,135.400879
785.1	4,749.849609
785.7	3,865.252686
787.1	3,898.073242
788.0	0.000000
788.6	0.000000
789.3	794.960449
789.9	0.000000
790.5	0.000000
791.4	0.015439
792.0	0.000000
793.1	1,289.729614
794.3	1,150.250977
795.0	1,350.084351
795.5	0.028612
796.1	3,874.307617
797.0	511.882935
797.9	0.000000
798.6	0.000000
799.2	382.666199
800.3	1,783.339111
801.6	6,441.109375
803.1	4,329.859863
803.6	156.736923
804.3	1,546.089355
804.8	0.116129
805.3	0.000000
806.2	0.000003
807.1	215.027496
808.1	0.000000
808.8	0.000000
809.4	0.000000
810.5	126.046448
811.3	0.000000
812.1	372.630524
813.2	0.000001
814.2	0.000000
814.8	554.829346
815.8	4,217.462891
816.9	32.231194
818.1	100.261314
819.8	1,720.677002
820.8	3,874.425293
821.3	2,686.877686
822.0	2,137.483154
822.8	829.539551
824.1	1,530.146973
826.3	6,717.519043
826.9	3,371.324463
828.1	12,899.125977
828.9	386.102448
830.0	4,425.894043
831.2	0.027965
833.1	435.518707
833.7	5,966.910156
834.3	0.077984
835.0	0.000000
835.6	894.382385
836.3	0.295437
836.8	94.034904
837.6	0.000000
838.1	335.072235
839.1	3,355.343994
839.8	0.000000
840.7	363.965515
842.0	0.000000
842.5	0.000000
844.1	0.000027
846.5	1,991.907227
847.2	0.014306
848.6	0.000000
850.3	0.000000
851.4	130.369446
852.7	0.000000
853.8	73.875542
854.6	0.000000
856.3	0.000000
856.9	0.000000
857.4	0.000000
858.2	0.000000
858.7	0.000000
859.7	680.847412
860.4	872.721741
861.8	0.000000
862.7	3,959.075684
863.3	0.000000
864.0	229.617935
865.4	0.000000
866.0	857.382813
866.6	0.000810
867.2	0.000000
868.2	0.000000
869.2	178.374619
870.3	0.000001
871.2	0.000000
871.9	1,358.271729
872.6	0.000471
873.6	0.000000
874.4	0.000000
875.7	2,379.932617
876.3	0.039489
877.1	0.000000
878.1	214.279984
879.4	0.000000
881.0	895.394043
881.7	0.000000
883.1	0.000001
884.2	0.000000
885.6	1.994902
886.1	0.000000
886.8	6.380043
888.0	14,168.016602
888.7	9,476.992188
889.4	6,639.895020
889.9	10.656479
891.0	2,583.702637
892.0	0.000000
892.8	0.000000
893.5	0.000002
894.0	0.000000
894.9	3,404.478271
895.6	3,387.635742
896.7	15,366.264648
897.2	2,691.515869
898.1	3,928.621582
899.0	1,367.927856
899.7	0.213533
900.3	0.000000
901.0	0.000000
902.4	0.000000
903.2	8.994345
904.2	0.000000
904.8	0.000000
905.6	0.000000
907.2	346.321899
908.5	0.000000
909.3	0.000000
911.7	1,598.360718
913.1	583.733704
913.7	0.000000
914.7	0.000000
915.6	0.000000
916.2	268.389923
917.1	0.000000
918.5	0.000000
919.4	0.032845
920.0	730.901550
920.9	0.000000
921.5	0.000000
922.5	0.000000
923.0	0.000000
923.8	0.000000
924.9	0.000002
926.1	0.000000
926.7	0.024052
927.4	0.000000
928.0	0.000000
928.6	0.000000
929.3	0.000000
930.5	0.000000
931.0	0.000000
931.5	0.000000
932.8	0.000000
933.9	0.000000
934.5	0.000000
935.3	0.000000
935.9	0.000000
936.8	0.000000
937.8	0.000000
938.3	0.000000
938.9	0.000006
939.9	0.000000
941.2	0.000000
942.2	0.000000
943.8	0.000001
945.6	0.000000
946.8	0.000000
947.9	126.639763
948.8	0.000000
949.6	0.000000
950.4	0.000000
951.1	0.000000
952.7	435.953064
954.0	0.000000
954.5	0.000000
955.7	0.000002
956.5	0.000001
957.6	0.000000
958.2	0.000000
959.0	0.000000
960.2	0.004658
961.3	0.000000
962.1	0.000000
963.3	0.000001
963.9	0.000000
964.4	0.000000
965.4	0.000000
965.9	0.000001
966.8	0.000000
968.6	0.000000
969.2	0.000000
970.4	148.486908
972.3	1,358.924438
973.3	0.000000
974.3	0.000000
975.2	0.000002
975.7	0.007642
976.3	0.000000
977.0	151.774567
977.7	0.000000
978.5	0.000000
979.2	0.000000
980.3	0.000000
980.9	0.000000
981.8	1.037676
982.4	0.000000
983.0	1.067662
984.1	0.000000
984.8	0.000000
985.4	0.000000
985.9	39.903973
987.1	0.000000
987.8	0.000000
989.1	0.000000
989.8	0.015860
990.5	0.000000
991.6	0.000000
992.2	0.011553
993.0	0.000000
994.1	6,197.838867
995.5	0.000000
996.1	0.000000
997.0	0.000000
997.6	0.000000
998.3	0.000000
999.1	0.000000
1,000.3	0.000000
1,001.2	1.704843
1,002.4	14.026667
1,003.0	0.000000
1,003.6	0.000000
1,005.6	0.000000
1,006.3	230.836472
1,006.9	212.612106
1,007.7	0.000000
1,008.9	0.000000
1,009.6	0.000001
1,010.1	0.000000
1,010.7	0.000000
1,011.4	0.000000
1,012.0	0.000000
1,012.7	0.000000
1,013.4	0.000000
1,014.3	0.000000
1,014.9	0.000000
1,016.8	0.000000
1,017.6	0.000000
1,018.9	0.000000
1,020.0	0.000000
1,020.9	0.000000
1,021.5	0.000000
1,022.1	0.000000
1,022.6	0.000000
1,023.4	0.000000
1,024.8	0.000000
1,026.4	0.000000
1,027.0	0.000000
1,028.6	0.000000
1,029.9	1.037519
1,030.4	0.000000
1,031.4	0.005044
1,032.2	0.000000
1,032.9	0.000002
1,034.0	0.000003
1,035.2	0.000000
1,036.0	0.000000
1,037.3	0.000000
1,038.0	0.000000
1,039.7	0.000000
1,040.7	0.000000
1,041.3	0.000000
1,042.0	0.000000
1,044.2	0.009719
1,044.7	0.000001
1,045.4	0.000000
1,045.9	0.000000
1,047.3	0.000000
1,048.0	0.000000
1,048.8	0.000000
1,050.8	1.250742
1,051.4	0.000000
1,052.2	0.000000
1,053.2	0.000000
1,053.9	1.250742
1,055.0	0.857136
1,056.5	0.000000
1,057.3	0.000000
1,059.0	3.288383
1,059.7	0.000000
1,060.3	274.364685
1,061.1	0.000000
1,062.5	0.000000
1,063.1	0.000000
1,063.8	0.000000
1,065.0	0.000000
1,065.7	0.000000
1,066.8	0.000000
1,067.5	0.000000
1,068.1	0.000000
1,068.7	0.000000
1,069.3	0.000000
1,071.3	0.000000
1,072.8	0.000005
1,073.8	0.000000
1,075.3	0.000000
1,076.3	0.000000
1,077.5	0.001787
1,078.2	0.000001
1,078.9	0.000000
1,079.9	0.000000
1,080.6	0.000000
1,081.7	0.000000
1,082.3	0.000000
1,083.2	0.000000
1,084.0	92.916664
1,084.6	0.000000
1,085.1	0.000000
1,085.8	0.000000
1,086.6	0.000000
1,087.9	0.000000
1,089.4	0.000000
1,090.0	0.000000
1,090.8	0.000000
1,091.9	1.281068
1,092.5	0.000000
1,093.1	0.000000
1,093.9	0.000000
1,095.0	0.000000
1,095.7	0.000000
1,097.1	0.000000
1,098.5	0.000000
1,099.3	0.000000
1,100.6	0.000000
1,101.3	0.000003
1,102.7	0.000000
1,103.3	0.000000
1,104.1	0.000000
1,105.7	0.000000
1,106.4	0.000000
1,108.2	0.000000
1,108.9	0.000000
1,109.5	0.000000
1,110.2	0.000000
1,111.6	0.000003
1,112.2	0.000000
1,113.3	0.000000
1,114.3	0.000000
1,115.0	0.026095
1,116.0	0.012371
1,116.6	0.000000
1,117.1	0.000000
1,118.3	0.085262
1,118.9	0.000000
1,119.6	0.000000
1,120.6	0.000002
1,121.2	0.000000
1,122.2	0.000000
1,123.3	0.000000
1,123.9	0.000000
1,125.2	0.000000
1,126.0	0.000000
1,126.6	0.000000
1,127.5	0.000000
1,128.4	0.000000
1,129.7	0.000000
1,130.5	0.000000
1,131.1	0.000001
1,132.0	0.000000
1,132.6	0.000000
1,133.3	0.000000
1,134.1	0.000000
1,134.9	0.000000
1,135.4	18.082779
1,136.1	0.000000
1,136.9	0.012861
1,137.5	0.000000
1,138.8	0.000000
1,141.3	314.249512
1,142.5	2,866.222900
1,143.4	0.000000
1,145.3	0.000001
1,146.2	210.276321
1,147.2	0.000000
1,147.7	22.130777
1,148.5	0.000000
1,149.4	0.000000
1,149.9	0.000000
1,151.0	0.000002
1,153.1	0.001299
1,154.6	0.000001
1,156.2	0.000002
1,157.6	1.280911
1,158.2	0.000000
1,159.1	0.000000
1,160.4	0.033526
1,160.9	0.000002
1,161.7	1.281068
1,163.9	0.000000
1,164.6	0.004596
1,165.2	0.000000
1,165.9	0.000000
1,166.6	0.000000
1,167.4	0.000000
1,168.3	0.000000
1,169.1	0.000000
1,170.0	0.000000
1,170.8	1.260484
1,171.6	0.000000
1,172.7	0.000000
1,174.3	0.000000
1,175.6	0.019626
1,176.7	0.000000
1,177.7	0.000000
1,178.8	0.000000
1,179.4	0.000000
1,180.5	0.000000
1,182.2	0.000000
1,183.1	0.000000
1,183.7	0.000000
1,184.4	0.000000
1,185.0	0.000000
1,185.7	1.494448
1,187.3	70.327690
1,188.0	0.000000
1,188.5	1.472296
1,189.4	0.000002
1,190.4	0.000000
1,191.5	0.000000
1,192.1	0.000000
1,192.8	0.000000
1,193.7	0.000000
1,194.3	0.000000
1,195.3	0.000000
1,196.2	0.000000
1,198.1	0.000000
1,198.8	0.000000
1,199.6	0.000000
