URL	chrom://pc-3vxg514/ChromeleonLocal/Data/2025/2025_w23.seq/905.smp/UV_VIS_2.channel/UV_VIS_2.chm
Channel	UV_VIS_2

Injection Information:
Data Vault	ChromeleonLocal
Sequence	2025_w23
Name	CA8393_2jun_SPAAC_pAz_48h
Number	228
Position	GB4
Comment	
Processing Method	General_ILK
Instrument Method	5-100pct_positive_3min
Type	Calibration Standard
Status	Finished
Inject Time	6/4/2025 3:51:22 PM +02:00
Volume (µl)	6.0000
Dilution Factor	1.0000
Weight	1.0000

Chromatogram Data Information:
Time Min. (min)	0.000000
Time Max. (min)	3.100000
Data Points	931
Detector	UV
Generating Data System	Chromeleon 7.3.2.11814
Exporting Data System	Chromeleon 7.3.2.0
Operator	Instrument Controller
Signal Quantity	Absorbance
Signal Unit	mAU
Signal Min.	-0.605374
Signal Max.	341.478334
Channel	UV_VIS_2
Driver Name	DAD3000.dll
Channel Type	Evaluation
Min. Step (s)	0.2
Max. Step (s)	0.2
Average Step (s)	0.2

Signal Parameter Information:
Signal Info	WVL:254 nm

Chromatogram Data:
Time (min)	Step (s)	Value (mAU)
0.000000	n.a.	0.000000
0.003333	0.2	-0.000133
0.006667	0.2	-0.000905
0.010000	0.2	-0.003022
0.013333	0.2	-0.006690
0.016667	0.2	-0.011230
0.020000	0.2	-0.015691
0.023333	0.2	-0.019788
0.026667	0.2	-0.023740
0.030000	0.2	-0.027565
0.033333	0.2	-0.031344
0.036667	0.2	-0.035615
0.040000	0.2	-0.040714
0.043333	0.2	-0.046210
0.046667	0.2	-0.051380
0.050000	0.2	-0.055746
0.053333	0.2	-0.059235
0.056667	0.2	-0.062204
0.060000	0.2	-0.064974
0.063333	0.2	-0.067547
0.066667	0.2	-0.070030
0.070000	0.2	-0.072789
0.073333	0.2	-0.076125
0.076667	0.2	-0.080189
0.080000	0.2	-0.085055
0.083333	0.2	-0.090657
0.086667	0.2	-0.096669
0.090000	0.2	-0.102502
0.093333	0.2	-0.107548
0.096667	0.2	-0.111478
0.100000	0.2	-0.114433
0.103333	0.2	-0.117079
0.106667	0.2	-0.120289
0.110000	0.2	-0.124488
0.113333	0.2	-0.129336
0.116667	0.2	-0.134171
0.120000	0.2	-0.138595
0.123333	0.2	-0.142578
0.126667	0.2	-0.146385
0.130000	0.2	-0.150517
0.133333	0.2	-0.155319
0.136667	0.2	-0.160633
0.140000	0.2	-0.165958
0.143333	0.2	-0.170722
0.146667	0.2	-0.174559
0.150000	0.2	-0.177735
0.153333	0.2	-0.181051
0.156667	0.2	-0.185151
0.160000	0.2	-0.190137
0.163333	0.2	-0.195620
0.166667	0.2	-0.200965
0.170000	0.2	-0.205659
0.173333	0.2	-0.209279
0.176667	0.2	-0.211242
0.180000	0.2	-0.211282
0.183333	0.2	-0.211388
0.186667	0.2	-0.168852
0.190000	0.2	0.473242
0.193333	0.2	3.588782
0.196667	0.2	11.467925
0.200000	0.2	23.583941
0.203333	0.2	35.410044
0.206667	0.2	41.950486
0.210000	0.2	41.681114
0.213333	0.2	36.759526
0.216667	0.2	30.631089
0.220000	0.2	25.786547
0.223333	0.2	22.912730
0.226667	0.2	21.312954
0.230000	0.2	19.853620
0.233333	0.2	17.713672
0.236667	0.2	14.675290
0.240000	0.2	11.077230
0.243333	0.2	7.607773
0.246667	0.2	4.992721
0.250000	0.2	3.619678
0.253333	0.2	3.358120
0.256667	0.2	3.798231
0.260000	0.2	4.637580
0.263333	0.2	5.782109
0.266667	0.2	7.173132
0.270000	0.2	8.644215
0.273333	0.2	9.936773
0.276667	0.2	10.804242
0.280000	0.2	11.118735
0.283333	0.2	10.915701
0.286667	0.2	10.347324
0.290000	0.2	9.588097
0.293333	0.2	8.765295
0.296667	0.2	7.943702
0.300000	0.2	7.145604
0.303333	0.2	6.377389
0.306667	0.2	5.646995
0.310000	0.2	4.968628
0.313333	0.2	4.358203
0.316667	0.2	3.826483
0.320000	0.2	3.375042
0.323333	0.2	2.995754
0.326667	0.2	2.672931
0.330000	0.2	2.387828
0.333333	0.2	2.124228
0.336667	0.2	1.872200
0.340000	0.2	1.628348
0.343333	0.2	1.393667
0.346667	0.2	1.171293
0.350000	0.2	0.965146
0.353333	0.2	0.778775
0.356667	0.2	0.614075
0.360000	0.2	0.470771
0.363333	0.2	0.347038
0.366667	0.2	0.240331
0.370000	0.2	0.148054
0.373333	0.2	0.068101
0.376667	0.2	-0.001306
0.380000	0.2	-0.062023
0.383333	0.2	-0.115463
0.386667	0.2	-0.162088
0.390000	0.2	-0.202046
0.393333	0.2	-0.235801
0.396667	0.2	-0.264018
0.400000	0.2	-0.287507
0.403333	0.2	-0.307238
0.406667	0.2	-0.323964
0.410000	0.2	-0.337981
0.413333	0.2	-0.349502
0.416667	0.2	-0.359148
0.420000	0.2	-0.367762
0.423333	0.2	-0.375773
0.426667	0.2	-0.383084
0.430000	0.2	-0.389365
0.433333	0.2	-0.394241
0.436667	0.2	-0.397734
0.440000	0.2	-0.400609
0.443333	0.2	-0.403759
0.446667	0.2	-0.407456
0.450000	0.2	-0.411495
0.453333	0.2	-0.415775
0.456667	0.2	-0.420607
0.460000	0.2	-0.426406
0.463333	0.2	-0.432969
0.466667	0.2	-0.439379
0.470000	0.2	-0.444723
0.473333	0.2	-0.448596
0.476667	0.2	-0.451013
0.480000	0.2	-0.452079
0.483333	0.2	-0.451745
0.486667	0.2	-0.449891
0.490000	0.2	-0.446494
0.493333	0.2	-0.441720
0.496667	0.2	-0.435861
0.500000	0.2	-0.429156
0.503333	0.2	-0.422087
0.506667	0.2	-0.415748
0.510000	0.2	-0.411124
0.513333	0.2	-0.408153
0.516667	0.2	-0.406137
0.520000	0.2	-0.404754
0.523333	0.2	-0.404178
0.526667	0.2	-0.404599
0.530000	0.2	-0.406036
0.533333	0.2	-0.408317
0.536667	0.2	-0.411028
0.540000	0.2	-0.413824
0.543333	0.2	-0.417023
0.546667	0.2	-0.421596
0.550000	0.2	-0.428366
0.553333	0.2	-0.437192
0.556667	0.2	-0.446941
0.560000	0.2	-0.456229
0.563333	0.2	-0.463972
0.566667	0.2	-0.469688
0.570000	0.2	-0.473944
0.573333	0.2	-0.478094
0.576667	0.2	-0.483031
0.580000	0.2	-0.488321
0.583333	0.2	-0.492900
0.586667	0.2	-0.496313
0.590000	0.2	-0.498837
0.593333	0.2	-0.500862
0.596667	0.2	-0.502570
0.600000	0.2	-0.503976
0.603333	0.2	-0.505089
0.606667	0.2	-0.506121
0.610000	0.2	-0.507587
0.613333	0.2	-0.510038
0.616667	0.2	-0.513586
0.620000	0.2	-0.517603
0.623333	0.2	-0.520846
0.626667	0.2	-0.522338
0.630000	0.2	-0.522345
0.633333	0.2	-0.522070
0.636667	0.2	-0.522562
0.640000	0.2	-0.524268
0.643333	0.2	-0.527259
0.646667	0.2	-0.531475
0.650000	0.2	-0.536722
0.653333	0.2	-0.542480
0.656667	0.2	-0.547787
0.660000	0.2	-0.551641
0.663333	0.2	-0.553868
0.666667	0.2	-0.555320
0.670000	0.2	-0.556931
0.673333	0.2	-0.558881
0.676667	0.2	-0.560770
0.680000	0.2	-0.562396
0.683333	0.2	-0.564212
0.686667	0.2	-0.566883
0.690000	0.2	-0.570435
0.693333	0.2	-0.574100
0.696667	0.2	-0.577016
0.700000	0.2	-0.578766
0.703333	0.2	-0.579370
0.706667	0.2	-0.579336
0.710000	0.2	-0.579546
0.713333	0.2	-0.580526
0.716667	0.2	-0.581952
0.720000	0.2	-0.583223
0.723333	0.2	-0.584309
0.726667	0.2	-0.585665
0.730000	0.2	-0.587519
0.733333	0.2	-0.589674
0.736667	0.2	-0.591897
0.740000	0.2	-0.594102
0.743333	0.2	-0.596065
0.746667	0.2	-0.597320
0.750000	0.2	-0.597684
0.753333	0.2	-0.597626
0.756667	0.2	-0.597828
0.760000	0.2	-0.598709
0.763333	0.2	-0.600403
0.766667	0.2	-0.602642
0.770000	0.2	-0.604618
0.773333	0.2	-0.605374
0.776667	0.2	-0.604367
0.780000	0.2	-0.601672
0.783333	0.2	-0.598024
0.786667	0.2	-0.594759
0.790000	0.2	-0.593118
0.793333	0.2	-0.593160
0.796667	0.2	-0.593706
0.800000	0.2	-0.593519
0.803333	0.2	-0.592219
0.806667	0.2	-0.590094
0.810000	0.2	-0.587311
0.813333	0.2	-0.583474
0.816667	0.2	-0.578337
0.820000	0.2	-0.572687
0.823333	0.2	-0.567766
0.826667	0.2	-0.564182
0.830000	0.2	-0.561721
0.833333	0.2	-0.559787
0.836667	0.2	-0.557878
0.840000	0.2	-0.555899
0.843333	0.2	-0.554070
0.846667	0.2	-0.552330
0.850000	0.2	-0.550115
0.853333	0.2	-0.546789
0.856667	0.2	-0.542108
0.860000	0.2	-0.536447
0.863333	0.2	-0.530665
0.866667	0.2	-0.525751
0.870000	0.2	-0.522209
0.873333	0.2	-0.519305
0.876667	0.2	-0.515447
0.880000	0.2	-0.509694
0.883333	0.2	-0.502389
0.886667	0.2	-0.494638
0.890000	0.2	-0.487492
0.893333	0.2	-0.481310
0.896667	0.2	-0.475947
0.900000	0.2	-0.471319
0.903333	0.2	-0.467211
0.906667	0.2	-0.462978
0.910000	0.2	-0.457870
0.913333	0.2	-0.451462
0.916667	0.2	-0.443739
0.920000	0.2	-0.435030
0.923333	0.2	-0.426003
0.926667	0.2	-0.417619
0.930000	0.2	-0.410752
0.933333	0.2	-0.405596
0.936667	0.2	-0.401618
0.940000	0.2	-0.398017
0.943333	0.2	-0.393993
0.946667	0.2	-0.388932
0.950000	0.2	-0.382679
0.953333	0.2	-0.375468
0.956667	0.2	-0.367694
0.960000	0.2	-0.359808
0.963333	0.2	-0.352061
0.966667	0.2	-0.344414
0.970000	0.2	-0.336753
0.973333	0.2	-0.328875
0.976667	0.2	-0.320500
0.980000	0.2	-0.311686
0.983333	0.2	-0.302854
0.986667	0.2	-0.294375
0.990000	0.2	-0.286537
0.993333	0.2	-0.279513
0.996667	0.2	-0.273084
1.000000	0.2	-0.266876
1.003333	0.2	-0.260748
1.006667	0.2	-0.254639
1.010000	0.2	-0.248505
1.013333	0.2	-0.242450
1.016667	0.2	-0.236314
1.020000	0.2	-0.229496
1.023333	0.2	-0.221731
1.026667	0.2	-0.213462
1.030000	0.2	-0.205328
1.033333	0.2	-0.197710
1.036667	0.2	-0.190573
1.040000	0.2	-0.183693
1.043333	0.2	-0.177154
1.046667	0.2	-0.171265
1.050000	0.2	-0.165919
1.053333	0.2	-0.160370
1.056667	0.2	-0.153789
1.060000	0.2	-0.145883
1.063333	0.2	-0.136876
1.066667	0.2	-0.127101
1.070000	0.2	-0.116673
1.073333	0.2	-0.105574
1.076667	0.2	-0.094003
1.080000	0.2	-0.082468
1.083333	0.2	-0.071418
1.086667	0.2	-0.060777
1.090000	0.2	-0.049968
1.093333	0.2	-0.038515
1.096667	0.2	-0.026631
1.100000	0.2	-0.014982
1.103333	0.2	-0.003825
1.106667	0.2	0.007180
1.110000	0.2	0.018379
1.113333	0.2	0.029901
1.116667	0.2	0.041858
1.120000	0.2	0.054389
1.123333	0.2	0.067356
1.126667	0.2	0.080091
1.130000	0.2	0.091739
1.133333	0.2	0.101859
1.136667	0.2	0.110692
1.140000	0.2	0.118909
1.143333	0.2	0.127003
1.146667	0.2	0.134998
1.150000	0.2	0.142645
1.153333	0.2	0.149636
1.156667	0.2	0.155953
1.160000	0.2	0.162145
1.163333	0.2	0.168745
1.166667	0.2	0.175738
1.170000	0.2	0.183165
1.173333	0.2	0.191308
1.176667	0.2	0.199993
1.180000	0.2	0.208837
1.183333	0.2	0.217931
1.186667	0.2	0.227610
1.190000	0.2	0.238038
1.193333	0.2	0.249085
1.196667	0.2	0.260363
1.200000	0.2	0.271386
1.203333	0.2	0.281951
1.206667	0.2	0.292533
1.210000	0.2	0.303876
1.213333	0.2	0.316263
1.216667	0.2	0.329622
1.220000	0.2	0.343685
1.223333	0.2	0.357959
1.226667	0.2	0.372105
1.230000	0.2	0.386169
1.233333	0.2	0.400313
1.236667	0.2	0.414573
1.240000	0.2	0.428915
1.243333	0.2	0.443336
1.246667	0.2	0.457823
1.250000	0.2	0.472222
1.253333	0.2	0.486147
1.256667	0.2	0.499151
1.260000	0.2	0.511077
1.263333	0.2	0.522164
1.266667	0.2	0.532840
1.270000	0.2	0.543403
1.273333	0.2	0.553999
1.276667	0.2	0.564838
1.280000	0.2	0.576202
1.283333	0.2	0.588460
1.286667	0.2	0.602134
1.290000	0.2	0.617762
1.293333	0.2	0.635760
1.296667	0.2	0.656463
1.300000	0.2	0.680197
1.303333	0.2	0.706951
1.306667	0.2	0.735671
1.310000	0.2	0.764230
1.313333	0.2	0.790485
1.316667	0.2	0.813474
1.320000	0.2	0.833839
1.323333	0.2	0.853029
1.326667	0.2	0.871985
1.330000	0.2	0.890597
1.333333	0.2	0.908054
1.336667	0.2	0.923553
1.340000	0.2	0.936934
1.343333	0.2	0.948802
1.346667	0.2	0.960267
1.350000	0.2	0.972728
1.353333	0.2	0.987701
1.356667	0.2	1.006480
1.360000	0.2	1.030101
1.363333	0.2	1.059494
1.366667	0.2	1.095190
1.370000	0.2	1.136711
1.373333	0.2	1.182273
1.376667	0.2	1.229286
1.380000	0.2	1.275446
1.383333	0.2	1.319599
1.386667	0.2	1.362345
1.390000	0.2	1.406208
1.393333	0.2	1.454371
1.396667	0.2	1.508480
1.400000	0.2	1.567377
1.403333	0.2	1.627159
1.406667	0.2	1.682144
1.410000	0.2	1.726633
1.413333	0.2	1.756994
1.416667	0.2	1.772994
1.420000	0.2	1.777753
1.423333	0.2	1.776498
1.426667	0.2	1.774583
1.430000	0.2	1.775672
1.433333	0.2	1.780933
1.436667	0.2	1.789328
1.440000	0.2	1.804898
1.443333	0.2	1.887350
1.446667	0.2	2.315932
1.450000	0.2	3.858637
1.453333	0.2	7.925132
1.456667	0.2	16.305089
1.460000	0.2	30.486374
1.463333	0.2	50.955344
1.466667	0.2	76.941086
1.470000	0.2	106.714598
1.473333	0.2	138.168882
1.476667	0.2	169.329876
1.480000	0.2	198.652142
1.483333	0.2	225.167338
1.486667	0.2	248.581788
1.490000	0.2	269.260383
1.493333	0.2	287.914034
1.496667	0.2	304.999879
1.500000	0.2	320.195139
1.503333	0.2	332.338977
1.506667	0.2	339.874259
1.510000	0.2	341.478334
1.513333	0.2	336.538761
1.516667	0.2	325.311891
1.520000	0.2	308.789478
1.523333	0.2	288.397152
1.526667	0.2	265.664538
1.530000	0.2	241.967760
1.533333	0.2	218.385390
1.536667	0.2	195.660221
1.540000	0.2	174.234811
1.543333	0.2	154.323674
1.546667	0.2	135.991669
1.550000	0.2	119.219835
1.553333	0.2	103.950767
1.556667	0.2	90.114132
1.560000	0.2	77.638256
1.563333	0.2	66.453977
1.566667	0.2	56.494729
1.570000	0.2	47.694560
1.573333	0.2	39.985422
1.576667	0.2	33.295728
1.580000	0.2	27.550291
1.583333	0.2	22.670247
1.586667	0.2	18.573192
1.590000	0.2	15.174348
1.593333	0.2	12.388558
1.596667	0.2	10.132986
1.600000	0.2	8.329826
1.603333	0.2	6.908157
1.606667	0.2	5.805307
1.610000	0.2	4.967515
1.613333	0.2	4.348916
1.616667	0.2	3.909325
1.620000	0.2	3.612094
1.623333	0.2	3.422761
1.626667	0.2	3.309316
1.630000	0.2	3.244111
1.633333	0.2	3.205585
1.636667	0.2	3.178640
1.640000	0.2	3.154283
1.643333	0.2	3.128694
1.646667	0.2	3.101382
1.650000	0.2	3.073391
1.653333	0.2	3.046448
1.656667	0.2	3.022507
1.660000	0.2	3.003333
1.663333	0.2	2.990208
1.666667	0.2	2.983866
1.670000	0.2	2.984768
1.673333	0.2	2.993140
1.676667	0.2	3.008742
1.680000	0.2	3.030797
1.683333	0.2	3.057960
1.686667	0.2	3.088447
1.690000	0.2	3.120457
1.693333	0.2	3.152382
1.696667	0.2	3.182970
1.700000	0.2	3.211676
1.703333	0.2	3.238242
1.706667	0.2	3.261911
1.710000	0.2	3.281814
1.713333	0.2	3.297729
1.716667	0.2	3.309964
1.720000	0.2	3.319127
1.723333	0.2	3.325860
1.726667	0.2	3.330324
1.730000	0.2	3.332124
1.733333	0.2	3.330645
1.736667	0.2	3.325492
1.740000	0.2	3.317049
1.743333	0.2	3.306564
1.746667	0.2	3.295571
1.750000	0.2	3.285207
1.753333	0.2	3.276021
1.756667	0.2	3.268322
1.760000	0.2	3.262268
1.763333	0.2	3.257528
1.766667	0.2	3.253476
1.770000	0.2	3.249838
1.773333	0.2	3.247005
1.776667	0.2	3.246027
1.780000	0.2	3.248332
1.783333	0.2	3.255193
1.786667	0.2	3.267264
1.790000	0.2	3.284547
1.793333	0.2	3.306767
1.796667	0.2	3.333471
1.800000	0.2	3.363803
1.803333	0.2	3.396424
1.806667	0.2	3.429661
1.810000	0.2	3.462284
1.813333	0.2	3.494651
1.816667	0.2	3.528961
1.820000	0.2	3.568719
1.823333	0.2	3.618602
1.826667	0.2	3.684357
1.830000	0.2	3.771954
1.833333	0.2	3.886456
1.836667	0.2	4.030529
1.840000	0.2	4.202221
1.843333	0.2	4.393431
1.846667	0.2	4.590934
1.850000	0.2	4.780018
1.853333	0.2	4.948624
1.856667	0.2	5.090056
1.860000	0.2	5.204007
1.863333	0.2	5.296494
1.866667	0.2	5.378571
1.870000	0.2	5.462956
1.873333	0.2	5.559184
1.876667	0.2	5.669536
1.880000	0.2	5.787729
1.883333	0.2	5.901212
1.886667	0.2	5.995992
1.890000	0.2	6.061275
1.893333	0.2	6.091770
1.896667	0.2	6.087555
1.900000	0.2	6.052670
1.903333	0.2	5.993729
1.906667	0.2	5.918835
1.910000	0.2	5.836170
1.913333	0.2	5.752466
1.916667	0.2	5.672464
1.920000	0.2	5.599473
1.923333	0.2	5.536204
1.926667	0.2	5.485136
1.930000	0.2	5.447943
1.933333	0.2	5.424236
1.936667	0.2	5.410898
1.940000	0.2	5.402996
1.943333	0.2	5.395765
1.946667	0.2	5.386531
1.950000	0.2	5.375679
1.953333	0.2	5.366755
1.956667	0.2	5.366860
1.960000	0.2	5.387061
1.963333	0.2	5.440439
1.966667	0.2	5.536803
1.970000	0.2	5.676576
1.973333	0.2	5.847223
1.976667	0.2	6.024844
1.980000	0.2	6.181182
1.983333	0.2	6.292190
1.986667	0.2	6.343370
1.990000	0.2	6.330643
1.993333	0.2	6.258911
1.996667	0.2	6.140090
2.000000	0.2	5.990238
2.003333	0.2	5.825878
2.006667	0.2	5.660958
2.010000	0.2	5.505440
2.013333	0.2	5.365409
2.016667	0.2	5.243854
2.020000	0.2	5.141502
2.023333	0.2	5.057877
2.026667	0.2	4.992415
2.030000	0.2	4.944842
2.033333	0.2	4.914677
2.036667	0.2	4.900304
2.040000	0.2	4.898235
2.043333	0.2	4.903514
2.046667	0.2	4.911420
2.050000	0.2	4.919151
2.053333	0.2	4.926047
2.056667	0.2	4.932648
2.060000	0.2	4.940155
2.063333	0.2	4.950664
2.066667	0.2	4.967222
2.070000	0.2	4.993151
2.073333	0.2	5.030474
2.076667	0.2	5.078177
2.080000	0.2	5.131899
2.083333	0.2	5.185413
2.086667	0.2	5.232597
2.090000	0.2	5.268847
2.093333	0.2	5.291828
2.096667	0.2	5.301533
2.100000	0.2	5.299687
2.103333	0.2	5.289242
2.106667	0.2	5.274206
2.110000	0.2	5.258876
2.113333	0.2	5.246646
2.116667	0.2	5.239368
2.120000	0.2	5.237480
2.123333	0.2	5.240515
2.126667	0.2	5.247610
2.130000	0.2	5.258007
2.133333	0.2	5.271133
2.136667	0.2	5.286252
2.140000	0.2	5.302694
2.143333	0.2	5.320162
2.146667	0.2	5.338134
2.150000	0.2	5.355820
2.153333	0.2	5.372971
2.156667	0.2	5.390136
2.160000	0.2	5.408372
2.163333	0.2	5.428730
2.166667	0.2	5.451611
2.170000	0.2	5.476839
2.173333	0.2	5.504660
2.176667	0.2	5.536780
2.180000	0.2	5.577096
2.183333	0.2	5.631657
2.186667	0.2	5.707044
2.190000	0.2	5.807701
2.193333	0.2	5.933464
2.196667	0.2	6.078148
2.200000	0.2	6.229951
2.203333	0.2	6.373842
2.206667	0.2	6.494954
2.210000	0.2	6.581978
2.213333	0.2	6.629762
2.216667	0.2	6.640016
2.220000	0.2	6.619540
2.223333	0.2	6.577136
2.226667	0.2	6.521527
2.230000	0.2	6.460847
2.233333	0.2	6.401922
2.236667	0.2	6.349283
2.240000	0.2	6.305234
2.243333	0.2	6.270553
2.246667	0.2	6.244930
2.250000	0.2	6.227203
2.253333	0.2	6.215851
2.256667	0.2	6.209679
2.260000	0.2	6.208257
2.263333	0.2	6.212186
2.266667	0.2	6.222702
2.270000	0.2	6.239978
2.273333	0.2	6.261983
2.276667	0.2	6.285554
2.280000	0.2	6.308234
2.283333	0.2	6.329040
2.286667	0.2	6.347980
2.290000	0.2	6.365135
2.293333	0.2	6.380416
2.296667	0.2	6.394158
2.300000	0.2	6.407064
2.303333	0.2	6.419329
2.306667	0.2	6.430797
2.310000	0.2	6.442067
2.313333	0.2	6.454443
2.316667	0.2	6.468704
2.320000	0.2	6.484398
2.323333	0.2	6.500486
2.326667	0.2	6.516297
2.330000	0.2	6.531744
2.333333	0.2	6.547118
2.336667	0.2	6.562800
2.340000	0.2	6.579041
2.343333	0.2	6.596057
2.346667	0.2	6.614135
2.350000	0.2	6.633469
2.353333	0.2	6.653948
2.356667	0.2	6.675143
2.360000	0.2	6.696447
2.363333	0.2	6.717364
2.366667	0.2	6.737848
2.370000	0.2	6.758224
2.373333	0.2	6.778738
2.376667	0.2	6.799466
2.380000	0.2	6.820519
2.383333	0.2	6.841942
2.386667	0.2	6.863613
2.390000	0.2	6.885362
2.393333	0.2	6.906826
2.396667	0.2	6.927520
2.400000	0.2	6.947635
2.403333	0.2	6.968317
2.406667	0.2	6.990679
2.410000	0.2	7.014753
2.413333	0.2	7.039503
2.416667	0.2	7.063801
2.420000	0.2	7.087273
2.423333	0.2	7.110079
2.426667	0.2	7.132345
2.430000	0.2	7.154100
2.433333	0.2	7.175588
2.436667	0.2	7.197518
2.440000	0.2	7.220795
2.443333	0.2	7.245994
2.446667	0.2	7.273219
2.450000	0.2	7.302303
2.453333	0.2	7.332905
2.456667	0.2	7.364369
2.460000	0.2	7.395462
2.463333	0.2	7.424654
2.466667	0.2	7.450956
2.470000	0.2	7.474246
2.473333	0.2	7.494910
2.476667	0.2	7.513477
2.480000	0.2	7.530543
2.483333	0.2	7.546848
2.486667	0.2	7.563388
2.490000	0.2	7.581400
2.493333	0.2	7.601976
2.496667	0.2	7.625790
2.500000	0.2	7.653877
2.503333	0.2	7.688699
2.506667	0.2	7.733622
2.510000	0.2	7.790927
2.513333	0.2	7.860139
2.516667	0.2	7.937366
2.520000	0.2	8.015598
2.523333	0.2	8.086662
2.526667	0.2	8.144250
2.530000	0.2	8.185705
2.533333	0.2	8.211910
2.536667	0.2	8.226343
2.540000	0.2	8.233909
2.543333	0.2	8.240037
2.546667	0.2	8.250219
2.550000	0.2	8.268964
2.553333	0.2	8.298101
2.556667	0.2	8.336172
2.560000	0.2	8.379447
2.563333	0.2	8.423402
2.566667	0.2	8.463888
2.570000	0.2	8.497966
2.573333	0.2	8.524382
2.576667	0.2	8.543583
2.580000	0.2	8.557507
2.583333	0.2	8.569349
2.586667	0.2	8.583068
2.590000	0.2	8.602355
2.593333	0.2	8.628857
2.596667	0.2	8.660704
2.600000	0.2	8.693600
2.603333	0.2	8.723870
2.606667	0.2	8.750359
2.610000	0.2	8.774158
2.613333	0.2	8.797666
2.616667	0.2	8.823556
2.620000	0.2	8.853364
2.623333	0.2	8.886660
2.626667	0.2	8.921773
2.630000	0.2	8.957109
2.633333	0.2	8.991451
2.636667	0.2	9.023300
2.640000	0.2	9.051111
2.643333	0.2	9.074701
2.646667	0.2	9.095756
2.650000	0.2	9.116941
2.653333	0.2	9.141340
2.656667	0.2	9.172033
2.660000	0.2	9.210469
2.663333	0.2	9.255113
2.666667	0.2	9.302509
2.670000	0.2	9.349261
2.673333	0.2	9.392933
2.676667	0.2	9.432349
2.680000	0.2	9.467744
2.683333	0.2	9.500218
2.686667	0.2	9.531194
2.690000	0.2	9.562578
2.693333	0.2	9.596552
2.696667	0.2	9.634644
2.700000	0.2	9.677333
2.703333	0.2	9.724497
2.706667	0.2	9.776004
2.710000	0.2	9.831677
2.713333	0.2	9.890562
2.716667	0.2	9.950581
2.720000	0.2	10.009324
2.723333	0.2	10.065543
2.726667	0.2	10.120268
2.730000	0.2	10.176269
2.733333	0.2	10.235761
2.736667	0.2	10.297890
2.740000	0.2	10.358390
2.743333	0.2	10.412060
2.746667	0.2	10.455634
2.750000	0.2	10.488801
2.753333	0.2	10.513543
2.756667	0.2	10.532921
2.760000	0.2	10.549911
2.763333	0.2	10.566765
2.766667	0.2	10.585418
2.770000	0.2	10.607817
2.773333	0.2	10.635008
2.776667	0.2	10.666394
2.780000	0.2	10.700433
2.783333	0.2	10.736000
2.786667	0.2	10.773145
2.790000	0.2	10.812542
2.793333	0.2	10.854264
2.796667	0.2	10.897029
2.800000	0.2	10.938771
2.803333	0.2	10.978440
2.806667	0.2	11.017032
2.810000	0.2	11.056611
2.813333	0.2	11.098842
2.816667	0.2	11.144306
2.820000	0.2	11.192412
2.823333	0.2	11.242137
2.826667	0.2	11.293032
2.830000	0.2	11.344953
2.833333	0.2	11.397042
2.836667	0.2	11.447575
2.840000	0.2	11.494950
2.843333	0.2	11.538985
2.846667	0.2	11.581416
2.850000	0.2	11.624973
2.853333	0.2	11.671565
2.856667	0.2	11.721217
2.860000	0.2	11.772770
2.863333	0.2	11.825333
2.866667	0.2	11.878777
2.870000	0.2	11.932711
2.873333	0.2	11.985516
2.876667	0.2	12.035108
2.880000	0.2	12.080619
2.883333	0.2	12.123263
2.886667	0.2	12.165524
2.890000	0.2	12.209350
2.893333	0.2	12.254966
2.896667	0.2	12.301201
2.900000	0.2	12.347526
2.903333	0.2	12.395537
2.906667	0.2	12.446966
2.910000	0.2	12.500867
2.913333	0.2	12.553876
2.916667	0.2	12.602619
2.920000	0.2	12.645944
2.923333	0.2	12.685469
2.926667	0.2	12.724019
2.930000	0.2	12.763668
2.933333	0.2	12.804831
2.936667	0.2	12.846811
2.940000	0.2	12.889718
2.943333	0.2	12.935132
2.946667	0.2	12.983855
2.950000	0.2	13.033941
2.953333	0.2	13.081793
2.956667	0.2	13.125085
2.960000	0.2	13.164451
2.963333	0.2	13.202481
2.966667	0.2	13.241514
2.970000	0.2	13.282046
2.973333	0.2	13.322405
2.976667	0.2	13.360936
2.980000	0.2	13.398719
2.983333	0.2	13.438418
2.986667	0.2	13.480635
2.990000	0.2	13.522523
2.993333	0.2	13.560076
2.996667	0.2	13.591529
3.000000	0.2	13.618292
3.003333	0.2	13.643369
3.006667	0.2	13.669527
3.010000	0.2	13.698086
3.013333	0.2	13.728805
3.016667	0.2	13.760667
3.020000	0.2	13.792566
3.023333	0.2	13.823682
3.026667	0.2	13.853340
3.030000	0.2	13.880589
3.033333	0.2	13.904589
3.036667	0.2	13.925513
3.040000	0.2	13.944927
3.043333	0.2	13.965298
3.046667	0.2	13.988582
3.050000	0.2	14.015018
3.053333	0.2	14.043679
3.056667	0.2	14.073701
3.060000	0.2	14.104235
3.063333	0.2	14.134133
3.066667	0.2	14.162508
3.070000	0.2	14.189023
3.073333	0.2	14.213720
3.076667	0.2	14.237187
3.080000	0.2	14.260377
3.083333	0.2	14.283867
3.086667	0.2	14.307295
3.090000	0.2	14.329240
3.093333	0.2	14.348550
3.096667	0.2	14.366320
3.100000	0.2	14.384940
