Serial Number,6027
File Created, 8/ 7/2025 14:1:46
Source Application,Kinetics
User,

Wavelength (nm),307.0
Measurement Mode,Serial
Integration time (ms),2000
Delay(s),0
Duration(s),3600
Interval(s),5
Mode,Delta A
Factor,1.000
Units,

Time(s),Absorbance
0.0,2.384
5.0,2.384
10.0,2.404
15.0,2.386
20.0,2.373
25.0,2.387
30.0,2.391
35.0,2.395
40.0,2.377
45.0,2.361
50.0,2.370
55.0,2.387
60.0,2.367
65.0,2.352
70.0,2.363
75.0,2.361
80.0,2.353
85.0,2.327
90.0,2.338
95.0,2.341
100.0,2.344
105.0,2.336
110.0,2.292
115.0,2.329
120.0,2.315
125.0,2.290
130.0,2.298
135.0,2.279
140.0,2.290
145.0,2.279
150.0,2.241
155.0,2.262
160.0,2.227
165.0,2.205
170.0,2.213
175.0,2.189
180.0,2.179
185.0,2.165
190.0,2.166
195.0,2.149
200.0,2.116
205.0,2.125
210.0,2.097
215.0,2.084
220.0,2.078
225.0,2.072
230.0,2.046
235.0,2.031
240.0,1.999
245.0,2.002
250.0,1.979
255.0,1.966
260.0,1.954
265.0,1.931
270.0,1.915
275.0,1.911
280.0,1.891
285.0,1.873
290.0,1.859
295.0,1.850
300.0,1.831
305.0,1.823
310.0,1.809
315.0,1.788
320.0,1.774
325.0,1.764
330.0,1.756
335.0,1.737
340.0,1.730
345.0,1.713
350.0,1.696
355.0,1.693
360.0,1.678
365.0,1.666
370.0,1.657
375.0,1.646
380.0,1.626
385.0,1.625
390.0,1.612
395.0,1.601
400.0,1.590
405.0,1.580
410.0,1.575
415.0,1.566
420.0,1.556
425.0,1.548
430.0,1.541
435.0,1.533
440.0,1.522
445.0,1.515
450.0,1.507
455.0,1.495
460.0,1.487
465.0,1.486
470.0,1.476
475.0,1.468
480.0,1.458
485.0,1.451
490.0,1.446
495.0,1.445
500.0,1.434
505.0,1.423
510.0,1.419
515.0,1.418
520.0,1.412
525.0,1.402
530.0,1.400
535.0,1.396
540.0,1.390
545.0,1.385
550.0,1.381
555.0,1.375
560.0,1.369
565.0,1.366
570.0,1.361
575.0,1.357
580.0,1.351
585.0,1.348
590.0,1.342
595.0,1.339
600.0,1.338
605.0,1.333
610.0,1.326
615.0,1.324
620.0,1.321
625.0,1.318
630.0,1.314
635.0,1.313
640.0,1.313
645.0,1.304
650.0,1.303
655.0,1.304
660.0,1.299
665.0,1.295
670.0,1.294
675.0,1.289
680.0,1.289
685.0,1.287
690.0,1.282
695.0,1.282
700.0,1.278
705.0,1.275
710.0,1.277
715.0,1.275
720.0,1.272
725.0,1.271
730.0,1.270
735.0,1.268
740.0,1.264
745.0,1.260
750.0,1.259
755.0,1.259
760.0,1.256
765.0,1.255
770.0,1.255
775.0,1.251
780.0,1.252
785.0,1.247
790.0,1.247
795.0,1.247
800.0,1.246
805.0,1.246
810.0,1.244
815.0,1.240
820.0,1.240
825.0,1.239
830.0,1.238
835.0,1.234
840.0,1.235
845.0,1.238
850.0,1.236
855.0,1.235
860.0,1.232
865.0,1.233
870.0,1.231
875.0,1.230
880.0,1.228
885.0,1.230
890.0,1.228
895.0,1.227
900.0,1.223
905.0,1.227
910.0,1.224
915.0,1.224
920.0,1.223
925.0,1.222
930.0,1.222
935.0,1.222
940.0,1.218
945.0,1.220
950.0,1.221
955.0,1.218
960.0,1.218
965.0,1.220
970.0,1.216
975.0,1.215
980.0,1.218
985.0,1.216
990.0,1.215
995.0,1.217
1000.0,1.218
1005.0,1.212
1010.0,1.215
1015.0,1.216
1020.0,1.213
1025.0,1.211
1030.0,1.211
1035.0,1.211
1040.0,1.211
1045.0,1.211
1050.0,1.208
1055.0,1.212
1060.0,1.211
1065.0,1.212
1070.0,1.211
1075.0,1.210
1080.0,1.212
1085.0,1.211
1090.0,1.211
1095.0,1.209
1100.0,1.209
1105.0,1.210
1110.0,1.208
1115.0,1.209
1120.0,1.208
1125.0,1.210
1130.0,1.208
1135.0,1.210
1140.0,1.207
1145.0,1.207
1150.0,1.207
1155.0,1.207
1160.0,1.207
1165.0,1.206
1170.0,1.207
1175.0,1.207
1180.0,1.207
1185.0,1.207
1190.0,1.207
1195.0,1.205
1200.0,1.206
1205.0,1.206
1210.0,1.206
1215.0,1.204
1220.0,1.208
1225.0,1.206
1230.0,1.206
1235.0,1.204
1240.0,1.206
1245.0,1.204
1250.0,1.205
1255.0,1.204
1260.0,1.203
1265.0,1.207
1270.0,1.207
1275.0,1.206
1280.0,1.203
1285.0,1.206
1290.0,1.205
1295.0,1.208
1300.0,1.204
1305.0,1.205
1310.0,1.206
1315.0,1.204
1320.0,1.205
1325.0,1.205
1330.0,1.206
1335.0,1.202
1340.0,1.205
1345.0,1.203
1350.0,1.202
1355.0,1.204
1360.0,1.203
1365.0,1.204
1370.0,1.202
1375.0,1.204
1380.0,1.206
1385.0,1.205
1390.0,1.204
1395.0,1.205
1400.0,1.206
1405.0,1.204
1410.0,1.204
1415.0,1.206
1420.0,1.205
1425.0,1.204
1430.0,1.206
1435.0,1.203
1440.0,1.206
1445.0,1.203
1450.0,1.206
1455.0,1.203
1460.0,1.207
1465.0,1.204
1470.0,1.206
1475.0,1.208
1480.0,1.205
1485.0,1.206
1490.0,1.203
1495.0,1.205
1500.0,1.205
1505.0,1.204
1510.0,1.206
1515.0,1.207
1520.0,1.204
1525.0,1.205
1530.0,1.206
1535.0,1.205
1540.0,1.206
1545.0,1.206
1550.0,1.207
1555.0,1.208
1560.0,1.205
1565.0,1.203
1570.0,1.207
1575.0,1.205
1580.0,1.204
1585.0,1.204
1590.0,1.204
1595.0,1.205
1600.0,1.206
1605.0,1.205
1610.0,1.205
1615.0,1.206
1620.0,1.206
1625.0,1.206
1630.0,1.206
1635.0,1.207
1640.0,1.206
1645.0,1.205
1650.0,1.205
1655.0,1.205
1660.0,1.207
1665.0,1.205
1670.0,1.204
1675.0,1.205
1680.0,1.206
1685.0,1.206
1690.0,1.208
1695.0,1.207
1700.0,1.208
1705.0,1.206
1710.0,1.206
1715.0,1.204
1720.0,1.204
1725.0,1.205
1730.0,1.205
1735.0,1.209
1740.0,1.208
1745.0,1.207
1750.0,1.206
1755.0,1.209
1760.0,1.209
1765.0,1.206
1770.0,1.208
1775.0,1.206
1780.0,1.208
1785.0,1.207
1790.0,1.207
1795.0,1.207
1800.0,1.209
1805.0,1.206
1810.0,1.209
1815.0,1.210
1820.0,1.209
1825.0,1.207
1830.0,1.207
1835.0,1.209
1840.0,1.208
1845.0,1.208
1850.0,1.210
1855.0,1.209
1860.0,1.207
1865.0,1.208
1870.0,1.206
1875.0,1.208
1880.0,1.211
1885.0,1.209
1890.0,1.210
1895.0,1.208
1900.0,1.210
1905.0,1.209
1910.0,1.207
1915.0,1.210
1920.0,1.211
1925.0,1.212
1930.0,1.209
1935.0,1.210
1940.0,1.209
1945.0,1.209
1950.0,1.210
1955.0,1.209
1960.0,1.210
1965.0,1.211
1970.0,1.211
1975.0,1.210
1980.0,1.210
1985.0,1.210
1990.0,1.212
1995.0,1.209
2000.0,1.207
2005.0,1.209
2010.0,1.209
2015.0,1.210
2020.0,1.211
2025.0,1.212
2030.0,1.212
2035.0,1.211
2040.0,1.212
2045.0,1.209
2050.0,1.211
2055.0,1.211
2060.0,1.210
2065.0,1.212
2070.0,1.211
2075.0,1.210
2080.0,1.210
2085.0,1.212
2090.0,1.208
2095.0,1.211
2100.0,1.210
2105.0,1.210
2110.0,1.209
2115.0,1.213
2120.0,1.212
2125.0,1.211
2130.0,1.212
2135.0,1.213
2140.0,1.211
2145.0,1.212
2150.0,1.211
2155.0,1.210
2160.0,1.212
2165.0,1.215
2170.0,1.210
2175.0,1.213
2180.0,1.211
2185.0,1.208
2190.0,1.212
2195.0,1.212
2200.0,1.211
2205.0,1.212
2210.0,1.209
2215.0,1.211
2220.0,1.212
2225.0,1.214
2230.0,1.211
2235.0,1.214
2240.0,1.213
2245.0,1.212
2250.0,1.214
2255.0,1.213
2260.0,1.212
2265.0,1.214
2270.0,1.213
2275.0,1.212
2280.0,1.211
2285.0,1.214
2290.0,1.211
2295.0,1.214
2300.0,1.211
2305.0,1.213
2310.0,1.213
2315.0,1.215
2320.0,1.212
2325.0,1.214
2330.0,1.218
2335.0,1.213
2340.0,1.212
2345.0,1.215
2350.0,1.212
2355.0,1.213
2360.0,1.213
2365.0,1.214
2370.0,1.213
2375.0,1.215
2380.0,1.215
2385.0,1.216
2390.0,1.213
2395.0,1.215
2400.0,1.215
2405.0,1.213
2410.0,1.216
2415.0,1.215
2420.0,1.216
2425.0,1.216
2430.0,1.216
2435.0,1.215
2440.0,1.214
2445.0,1.215
2450.0,1.214
2455.0,1.215
2460.0,1.215
2465.0,1.214
2470.0,1.216
2475.0,1.214
2480.0,1.214
2485.0,1.216
2490.0,1.215
2495.0,1.216
2500.0,1.217
2505.0,1.215
2510.0,1.215
2515.0,1.217
2520.0,1.216
2525.0,1.217
2530.0,1.217
2535.0,1.217
2540.0,1.215
2545.0,1.217
2550.0,1.215
2555.0,1.215
2560.0,1.216
2565.0,1.214
2570.0,1.217
2575.0,1.218
2580.0,1.216
2585.0,1.217
2590.0,1.216
2595.0,1.217
2600.0,1.216
2605.0,1.217
2610.0,1.215
2615.0,1.218
2620.0,1.218
2625.0,1.218
2630.0,1.217
2635.0,1.217
2640.0,1.218
2645.0,1.218
2650.0,1.217
2655.0,1.218
2660.0,1.217
2665.0,1.218
2670.0,1.219
2675.0,1.217
2680.0,1.219
2685.0,1.219
2690.0,1.218
2695.0,1.219
2700.0,1.220
2705.0,1.219
2710.0,1.221
2715.0,1.217
2720.0,1.218
2725.0,1.219
2730.0,1.219
2735.0,1.219
2740.0,1.218
2745.0,1.219
2750.0,1.220
2755.0,1.217
2760.0,1.220
2765.0,1.222
2770.0,1.219
2775.0,1.218
2780.0,1.220
2785.0,1.219
2790.0,1.217
2795.0,1.219
2800.0,1.218
2805.0,1.221
2810.0,1.219
2815.0,1.218
2820.0,1.219
2825.0,1.221
2830.0,1.218
2835.0,1.219
2840.0,1.219
2845.0,1.218
2850.0,1.222
2855.0,1.219
2860.0,1.222
2865.0,1.221
2870.0,1.218
2875.0,1.221
2880.0,1.220
2885.0,1.220
2890.0,1.223
2895.0,1.220
2900.0,1.221
2905.0,1.219
2910.0,1.220
2915.0,1.222
2920.0,1.220
2925.0,1.221
2930.0,1.218
2935.0,1.222
2940.0,1.220
2945.0,1.224
2950.0,1.222
2955.0,1.224
2960.0,1.219
2965.0,1.220
2970.0,1.221
2975.0,1.223
2980.0,1.222
2985.0,1.221
2990.0,1.223
2995.0,1.220
3000.0,1.221
3005.0,1.221
3010.0,1.222
3015.0,1.222
3020.0,1.221
3025.0,1.222
3030.0,1.220
3035.0,1.226
3040.0,1.223
3045.0,1.223
3050.0,1.223
3055.0,1.224
3060.0,1.223
3065.0,1.222
3070.0,1.223
3075.0,1.224
3080.0,1.221
3085.0,1.225
3090.0,1.222
3095.0,1.223
3100.0,1.222
3105.0,1.225
3110.0,1.222
3115.0,1.225
3120.0,1.223
3125.0,1.224
3130.0,1.224
3135.0,1.225
3140.0,1.221
3145.0,1.225
3150.0,1.224
3155.0,1.221
3160.0,1.221
3165.0,1.223
3170.0,1.224
3175.0,1.224
3180.0,1.224
3185.0,1.223
3190.0,1.227
3195.0,1.225
3200.0,1.225
3205.0,1.222
3210.0,1.225
3215.0,1.224
3220.0,1.225
3225.0,1.227
3230.0,1.225
3235.0,1.224
3240.0,1.225
3245.0,1.227
3250.0,1.226
3255.0,1.225
3260.0,1.224
3265.0,1.225
3270.0,1.225
3275.0,1.226
3280.0,1.225
3285.0,1.225
3290.0,1.224
3295.0,1.225
3300.0,1.224
3305.0,1.225
3310.0,1.226
3315.0,1.227
3320.0,1.225
3325.0,1.226
3330.0,1.223
3335.0,1.225
3340.0,1.226
3345.0,1.227
3350.0,1.226
3355.0,1.227
3360.0,1.225
3365.0,1.225
3370.0,1.225
3375.0,1.226
3380.0,1.226
3385.0,1.225
3390.0,1.225
3395.0,1.227
3400.0,1.225
3405.0,1.230
3410.0,1.226
3415.0,1.227
3420.0,1.229
3425.0,1.228
3430.0,1.230
3435.0,1.227
3440.0,1.226
3445.0,1.227
3450.0,1.224
3455.0,1.227
3460.0,1.228
3465.0,1.229
3470.0,1.227
3475.0,1.226
3480.0,1.229
3485.0,1.227
3490.0,1.228
3495.0,1.229
3500.0,1.228
3505.0,1.228
3510.0,1.229
3515.0,1.229
3520.0,1.228
3525.0,1.229
3530.0,1.229
3535.0,1.229
3540.0,1.228
3545.0,1.227
3550.0,1.229
3555.0,1.229
3560.0,1.230
3565.0,1.227
3570.0,1.228
3575.0,1.231
3580.0,1.228
3585.0,1.232
3590.0,1.228
3595.0,1.230
3600.0,1.230
