Serial Number,6027
File Created, 3/ 7/2025 14:46:21
Source Application,Kinetics
User,

Wavelength (nm),307.0
Measurement Mode,Serial
Integration time (ms),2000
Delay(s),0
Duration(s),3600
Interval(s),5
Mode,Delta A
Factor,1.000
Units,

Time(s),Absorbance
0.0,1.556
5.0,1.509
10.0,1.445
15.0,1.394
20.0,1.341
25.0,1.286
30.0,1.241
35.0,1.195
40.0,1.149
45.0,1.105
50.0,1.066
55.0,1.029
60.0,0.992
65.0,0.963
70.0,0.933
75.0,0.896
80.0,0.867
85.0,0.839
90.0,0.813
95.0,0.789
100.0,0.768
105.0,0.748
110.0,0.728
115.0,0.707
120.0,0.689
125.0,0.673
130.0,0.657
135.0,0.642
140.0,0.629
145.0,0.616
150.0,0.602
155.0,0.591
160.0,0.581
165.0,0.571
170.0,0.562
175.0,0.553
180.0,0.544
185.0,0.536
190.0,0.528
195.0,0.522
200.0,0.515
205.0,0.509
210.0,0.504
215.0,0.499
220.0,0.493
225.0,0.490
230.0,0.485
235.0,0.481
240.0,0.477
245.0,0.474
250.0,0.470
255.0,0.467
260.0,0.464
265.0,0.462
270.0,0.459
275.0,0.457
280.0,0.454
285.0,0.453
290.0,0.450
295.0,0.449
300.0,0.447
305.0,0.445
310.0,0.444
315.0,0.443
320.0,0.442
325.0,0.440
330.0,0.439
335.0,0.438
340.0,0.438
345.0,0.437
350.0,0.436
355.0,0.435
360.0,0.434
365.0,0.434
370.0,0.433
375.0,0.432
380.0,0.432
385.0,0.431
390.0,0.431
395.0,0.430
400.0,0.430
405.0,0.430
410.0,0.430
415.0,0.429
420.0,0.429
425.0,0.429
430.0,0.428
435.0,0.428
440.0,0.428
445.0,0.428
450.0,0.428
455.0,0.427
460.0,0.427
465.0,0.427
470.0,0.427
475.0,0.427
480.0,0.427
485.0,0.427
490.0,0.426
495.0,0.426
500.0,0.427
505.0,0.426
510.0,0.426
515.0,0.427
520.0,0.426
525.0,0.426
530.0,0.426
535.0,0.426
540.0,0.426
545.0,0.426
550.0,0.426
555.0,0.426
560.0,0.426
565.0,0.426
570.0,0.426
575.0,0.426
580.0,0.426
585.0,0.426
590.0,0.426
595.0,0.426
600.0,0.426
605.0,0.426
610.0,0.426
615.0,0.426
620.0,0.426
625.0,0.426
630.0,0.426
635.0,0.427
640.0,0.427
645.0,0.427
650.0,0.426
655.0,0.427
660.0,0.426
665.0,0.427
670.0,0.427
675.0,0.426
680.0,0.427
685.0,0.426
690.0,0.427
695.0,0.427
700.0,0.426
705.0,0.427
710.0,0.427
715.0,0.427
720.0,0.427
725.0,0.427
730.0,0.427
735.0,0.427
740.0,0.427
745.0,0.427
750.0,0.427
755.0,0.427
760.0,0.428
765.0,0.428
770.0,0.427
775.0,0.427
780.0,0.427
785.0,0.427
790.0,0.427
795.0,0.428
800.0,0.428
805.0,0.428
810.0,0.427
815.0,0.428
820.0,0.427
825.0,0.428
830.0,0.428
835.0,0.428
840.0,0.428
845.0,0.428
850.0,0.428
855.0,0.429
860.0,0.428
865.0,0.429
870.0,0.429
875.0,0.428
880.0,0.428
885.0,0.429
890.0,0.429
895.0,0.429
900.0,0.429
905.0,0.429
910.0,0.429
915.0,0.429
920.0,0.429
925.0,0.429
930.0,0.430
935.0,0.429
940.0,0.430
945.0,0.429
950.0,0.429
955.0,0.429
960.0,0.429
965.0,0.429
970.0,0.430
975.0,0.430
980.0,0.430
985.0,0.430
990.0,0.430
995.0,0.430
1000.0,0.430
1005.0,0.430
1010.0,0.430
1015.0,0.430
1020.0,0.431
1025.0,0.430
1030.0,0.430
1035.0,0.431
1040.0,0.431
1045.0,0.431
1050.0,0.431
1055.0,0.431
1060.0,0.431
1065.0,0.431
1070.0,0.431
1075.0,0.431
1080.0,0.432
1085.0,0.432
1090.0,0.431
1095.0,0.431
1100.0,0.431
1105.0,0.432
1110.0,0.432
1115.0,0.432
1120.0,0.432
1125.0,0.432
1130.0,0.432
1135.0,0.432
1140.0,0.432
1145.0,0.432
1150.0,0.432
1155.0,0.432
1160.0,0.432
1165.0,0.432
1170.0,0.433
1175.0,0.432
1180.0,0.432
1185.0,0.433
1190.0,0.432
1195.0,0.432
1200.0,0.433
1205.0,0.432
1210.0,0.433
1215.0,0.432
1220.0,0.433
1225.0,0.433
1230.0,0.433
1235.0,0.433
1240.0,0.433
1245.0,0.433
1250.0,0.433
1255.0,0.433
1260.0,0.433
1265.0,0.433
1270.0,0.433
1275.0,0.433
1280.0,0.433
1285.0,0.434
1290.0,0.434
1295.0,0.433
1300.0,0.433
1305.0,0.434
1310.0,0.433
1315.0,0.433
1320.0,0.434
1325.0,0.434
1330.0,0.434
1335.0,0.434
1340.0,0.434
1345.0,0.434
1350.0,0.434
1355.0,0.434
1360.0,0.434
1365.0,0.434
1370.0,0.434
1375.0,0.434
1380.0,0.434
1385.0,0.434
1390.0,0.434
1395.0,0.435
1400.0,0.434
1405.0,0.435
1410.0,0.435
1415.0,0.435
1420.0,0.435
1425.0,0.435
1430.0,0.435
1435.0,0.435
1440.0,0.435
1445.0,0.435
1450.0,0.435
1455.0,0.435
1460.0,0.436
1465.0,0.435
1470.0,0.435
1475.0,0.436
1480.0,0.436
1485.0,0.435
1490.0,0.436
1495.0,0.436
1500.0,0.436
1505.0,0.436
1510.0,0.436
1515.0,0.436
1520.0,0.436
1525.0,0.437
1530.0,0.436
1535.0,0.437
1540.0,0.436
1545.0,0.436
1550.0,0.436
1555.0,0.436
1560.0,0.436
1565.0,0.437
1570.0,0.437
1575.0,0.437
1580.0,0.437
1585.0,0.437
1590.0,0.437
1595.0,0.437
1600.0,0.437
1605.0,0.437
1610.0,0.437
1615.0,0.437
1620.0,0.437
1625.0,0.438
1630.0,0.437
1635.0,0.437
1640.0,0.438
1645.0,0.438
1650.0,0.438
1655.0,0.438
1660.0,0.438
1665.0,0.438
1670.0,0.438
1675.0,0.438
1680.0,0.438
1685.0,0.438
1690.0,0.438
1695.0,0.438
1700.0,0.438
1705.0,0.439
1710.0,0.438
1715.0,0.438
1720.0,0.439
1725.0,0.438
1730.0,0.439
1735.0,0.439
1740.0,0.439
1745.0,0.439
1750.0,0.439
1755.0,0.439
1760.0,0.440
1765.0,0.439
1770.0,0.440
1775.0,0.439
1780.0,0.440
1785.0,0.440
1790.0,0.440
1795.0,0.440
1800.0,0.440
1805.0,0.440
1810.0,0.440
1815.0,0.440
1820.0,0.440
1825.0,0.440
1830.0,0.440
1835.0,0.440
1840.0,0.440
1845.0,0.441
1850.0,0.441
1855.0,0.441
1860.0,0.441
1865.0,0.441
1870.0,0.440
1875.0,0.441
1880.0,0.440
1885.0,0.441
1890.0,0.441
1895.0,0.441
1900.0,0.441
1905.0,0.441
1910.0,0.441
1915.0,0.442
1920.0,0.442
1925.0,0.441
1930.0,0.441
1935.0,0.442
1940.0,0.442
1945.0,0.442
1950.0,0.442
1955.0,0.442
1960.0,0.442
1965.0,0.441
1970.0,0.442
1975.0,0.442
1980.0,0.442
1985.0,0.443
1990.0,0.442
1995.0,0.442
2000.0,0.442
2005.0,0.443
2010.0,0.442
2015.0,0.442
2020.0,0.443
2025.0,0.443
2030.0,0.443
2035.0,0.443
2040.0,0.443
2045.0,0.442
2050.0,0.443
2055.0,0.443
2060.0,0.443
2065.0,0.444
2070.0,0.443
2075.0,0.443
2080.0,0.444
2085.0,0.443
2090.0,0.444
2095.0,0.443
2100.0,0.444
2105.0,0.444
2110.0,0.444
2115.0,0.444
2120.0,0.444
2125.0,0.444
2130.0,0.444
2135.0,0.444
2140.0,0.444
2145.0,0.444
2150.0,0.444
2155.0,0.444
2160.0,0.445
2165.0,0.444
2170.0,0.444
2175.0,0.444
2180.0,0.445
2185.0,0.445
2190.0,0.444
2195.0,0.445
2200.0,0.445
2205.0,0.445
2210.0,0.445
2215.0,0.445
2220.0,0.445
2225.0,0.445
2230.0,0.445
2235.0,0.446
2240.0,0.446
2245.0,0.445
2250.0,0.445
2255.0,0.445
2260.0,0.446
2265.0,0.446
2270.0,0.445
2275.0,0.446
2280.0,0.446
2285.0,0.446
2290.0,0.447
2295.0,0.446
2300.0,0.446
2305.0,0.446
2310.0,0.446
2315.0,0.447
2320.0,0.446
2325.0,0.447
2330.0,0.446
2335.0,0.446
2340.0,0.447
2345.0,0.447
2350.0,0.447
2355.0,0.447
2360.0,0.446
2365.0,0.447
2370.0,0.447
2375.0,0.447
2380.0,0.447
2385.0,0.447
2390.0,0.447
2395.0,0.448
2400.0,0.448
2405.0,0.447
2410.0,0.447
2415.0,0.448
2420.0,0.448
2425.0,0.448
2430.0,0.447
2435.0,0.447
2440.0,0.448
2445.0,0.447
2450.0,0.448
2455.0,0.448
2460.0,0.448
2465.0,0.448
2470.0,0.448
2475.0,0.448
2480.0,0.449
2485.0,0.448
2490.0,0.448
2495.0,0.449
2500.0,0.448
2505.0,0.449
2510.0,0.449
2515.0,0.449
2520.0,0.449
2525.0,0.449
2530.0,0.449
2535.0,0.449
2540.0,0.449
2545.0,0.449
2550.0,0.450
2555.0,0.449
2560.0,0.449
2565.0,0.449
2570.0,0.450
2575.0,0.449
2580.0,0.450
2585.0,0.449
2590.0,0.450
2595.0,0.450
2600.0,0.450
2605.0,0.450
2610.0,0.450
2615.0,0.450
2620.0,0.450
2625.0,0.450
2630.0,0.450
2635.0,0.450
2640.0,0.451
2645.0,0.450
2650.0,0.451
2655.0,0.451
2660.0,0.451
2665.0,0.451
2670.0,0.451
2675.0,0.450
2680.0,0.450
2685.0,0.451
2690.0,0.451
2695.0,0.451
2700.0,0.451
2705.0,0.451
2710.0,0.451
2715.0,0.451
2720.0,0.452
2725.0,0.451
2730.0,0.452
2735.0,0.452
2740.0,0.452
2745.0,0.451
2750.0,0.452
2755.0,0.452
2760.0,0.452
2765.0,0.453
2770.0,0.452
2775.0,0.452
2780.0,0.452
2785.0,0.453
2790.0,0.452
2795.0,0.453
2800.0,0.452
2805.0,0.453
2810.0,0.452
2815.0,0.453
2820.0,0.453
2825.0,0.453
2830.0,0.453
2835.0,0.453
2840.0,0.453
2845.0,0.453
2850.0,0.454
2855.0,0.453
2860.0,0.454
2865.0,0.454
2870.0,0.453
2875.0,0.453
2880.0,0.454
2885.0,0.454
2890.0,0.453
2895.0,0.454
2900.0,0.454
2905.0,0.454
2910.0,0.454
2915.0,0.454
2920.0,0.454
2925.0,0.455
2930.0,0.455
2935.0,0.455
2940.0,0.455
2945.0,0.454
2950.0,0.455
2955.0,0.454
2960.0,0.455
2965.0,0.455
2970.0,0.455
2975.0,0.455
2980.0,0.455
2985.0,0.455
2990.0,0.455
2995.0,0.456
3000.0,0.455
3005.0,0.455
3010.0,0.456
3015.0,0.455
3020.0,0.456
3025.0,0.456
3030.0,0.456
3035.0,0.456
3040.0,0.456
3045.0,0.456
3050.0,0.456
3055.0,0.456
3060.0,0.456
3065.0,0.456
3070.0,0.457
3075.0,0.457
3080.0,0.457
3085.0,0.456
3090.0,0.457
3095.0,0.457
3100.0,0.457
3105.0,0.457
3110.0,0.457
3115.0,0.457
3120.0,0.457
3125.0,0.457
3130.0,0.457
3135.0,0.457
3140.0,0.457
3145.0,0.457
3150.0,0.458
3155.0,0.458
3160.0,0.458
3165.0,0.458
3170.0,0.458
3175.0,0.458
3180.0,0.458
3185.0,0.458
3190.0,0.458
3195.0,0.458
3200.0,0.458
3205.0,0.458
3210.0,0.458
3215.0,0.458
3220.0,0.458
3225.0,0.458
3230.0,0.458
3235.0,0.459
3240.0,0.459
3245.0,0.458
3250.0,0.459
3255.0,0.458
3260.0,0.459
3265.0,0.459
3270.0,0.459
3275.0,0.459
3280.0,0.459
3285.0,0.459
3290.0,0.459
3295.0,0.459
3300.0,0.459
3305.0,0.459
3310.0,0.460
3315.0,0.460
3320.0,0.460
3325.0,0.460
3330.0,0.460
3335.0,0.460
3340.0,0.459
3345.0,0.459
3350.0,0.460
3355.0,0.460
3360.0,0.460
3365.0,0.460
3370.0,0.460
3375.0,0.460
3380.0,0.460
3385.0,0.461
3390.0,0.461
3395.0,0.460
3400.0,0.460
3405.0,0.461
3410.0,0.462
3415.0,0.460
3420.0,0.461
3425.0,0.461
3430.0,0.461
3435.0,0.462
3440.0,0.461
3445.0,0.462
3450.0,0.461
3455.0,0.462
3460.0,0.462
3465.0,0.462
3470.0,0.462
3475.0,0.462
3480.0,0.461
3485.0,0.462
3490.0,0.462
3495.0,0.462
3500.0,0.462
3505.0,0.462
3510.0,0.462
3515.0,0.462
3520.0,0.463
3525.0,0.463
3530.0,0.462
3535.0,0.462
3540.0,0.463
3545.0,0.463
3550.0,0.462
3555.0,0.463
3560.0,0.463
3565.0,0.463
3570.0,0.463
3575.0,0.463
3580.0,0.463
3585.0,0.463
3590.0,0.463
3595.0,0.463
3600.0,0.464
