Serial Number,6027
File Created, 3/ 7/2025 14:47:7
Source Application,Kinetics
User,

Wavelength (nm),307.0
Measurement Mode,Serial
Integration time (ms),2000
Delay(s),0
Duration(s),3600
Interval(s),5
Mode,Delta A
Factor,1.000
Units,

Time(s),Absorbance
0.0,1.358
5.0,1.283
10.0,1.206
15.0,1.138
20.0,1.067
25.0,1.004
30.0,0.946
35.0,0.894
40.0,0.844
45.0,0.799
50.0,0.757
55.0,0.720
60.0,0.690
65.0,0.693
70.0,0.660
75.0,0.622
80.0,0.595
85.0,0.574
90.0,0.559
95.0,0.545
100.0,0.533
105.0,0.522
110.0,0.514
115.0,0.505
120.0,0.498
125.0,0.493
130.0,0.488
135.0,0.483
140.0,0.479
145.0,0.476
150.0,0.473
155.0,0.471
160.0,0.468
165.0,0.468
170.0,0.465
175.0,0.463
180.0,0.462
185.0,0.461
190.0,0.461
195.0,0.459
200.0,0.458
205.0,0.458
210.0,0.459
215.0,0.459
220.0,0.457
225.0,0.457
230.0,0.458
235.0,0.457
240.0,0.456
245.0,0.456
250.0,0.455
255.0,0.457
260.0,0.456
265.0,0.457
270.0,0.456
275.0,0.456
280.0,0.456
285.0,0.455
290.0,0.456
295.0,0.456
300.0,0.455
305.0,0.456
310.0,0.455
315.0,0.456
320.0,0.456
325.0,0.457
330.0,0.455
335.0,0.457
340.0,0.456
345.0,0.457
350.0,0.458
355.0,0.457
360.0,0.458
365.0,0.459
370.0,0.458
375.0,0.458
380.0,0.459
385.0,0.459
390.0,0.460
395.0,0.460
400.0,0.460
405.0,0.459
410.0,0.459
415.0,0.459
420.0,0.459
425.0,0.460
430.0,0.459
435.0,0.459
440.0,0.459
445.0,0.459
450.0,0.458
455.0,0.459
460.0,0.459
465.0,0.460
470.0,0.460
475.0,0.460
480.0,0.461
485.0,0.460
490.0,0.460
495.0,0.461
500.0,0.461
505.0,0.460
510.0,0.461
515.0,0.460
520.0,0.462
525.0,0.461
530.0,0.461
535.0,0.462
540.0,0.461
545.0,0.463
550.0,0.462
555.0,0.463
560.0,0.463
565.0,0.463
570.0,0.462
575.0,0.462
580.0,0.462
585.0,0.463
590.0,0.463
595.0,0.463
600.0,0.464
605.0,0.463
610.0,0.465
615.0,0.463
620.0,0.463
625.0,0.463
630.0,0.464
635.0,0.463
640.0,0.464
645.0,0.463
650.0,0.463
655.0,0.463
660.0,0.463
665.0,0.463
670.0,0.462
675.0,0.463
680.0,0.463
685.0,0.464
690.0,0.463
695.0,0.463
700.0,0.464
705.0,0.464
710.0,0.464
715.0,0.464
720.0,0.463
725.0,0.462
730.0,0.464
735.0,0.464
740.0,0.464
745.0,0.464
750.0,0.464
755.0,0.464
760.0,0.465
765.0,0.465
770.0,0.464
775.0,0.466
780.0,0.466
785.0,0.464
790.0,0.465
795.0,0.465
800.0,0.465
805.0,0.464
810.0,0.466
815.0,0.465
820.0,0.465
825.0,0.465
830.0,0.466
835.0,0.466
840.0,0.466
845.0,0.466
850.0,0.465
855.0,0.465
860.0,0.465
865.0,0.466
870.0,0.466
875.0,0.466
880.0,0.466
885.0,0.467
890.0,0.466
895.0,0.465
900.0,0.467
905.0,0.466
910.0,0.467
915.0,0.466
920.0,0.467
925.0,0.467
930.0,0.467
935.0,0.467
940.0,0.467
945.0,0.467
950.0,0.467
955.0,0.468
960.0,0.467
965.0,0.467
970.0,0.467
975.0,0.466
980.0,0.468
985.0,0.468
990.0,0.467
995.0,0.467
1000.0,0.468
1005.0,0.468
1010.0,0.468
1015.0,0.468
1020.0,0.468
1025.0,0.469
1030.0,0.468
1035.0,0.470
1040.0,0.468
1045.0,0.468
1050.0,0.469
1055.0,0.468
1060.0,0.467
1065.0,0.468
1070.0,0.469
1075.0,0.468
1080.0,0.468
1085.0,0.468
1090.0,0.470
1095.0,0.469
1100.0,0.469
1105.0,0.469
1110.0,0.470
1115.0,0.469
1120.0,0.469
1125.0,0.469
1130.0,0.470
1135.0,0.470
1140.0,0.469
1145.0,0.469
1150.0,0.470
1155.0,0.470
1160.0,0.470
1165.0,0.471
1170.0,0.470
1175.0,0.471
1180.0,0.470
1185.0,0.469
1190.0,0.470
1195.0,0.469
1200.0,0.470
1205.0,0.470
1210.0,0.471
1215.0,0.471
1220.0,0.471
1225.0,0.471
1230.0,0.471
1235.0,0.470
1240.0,0.470
1245.0,0.470
1250.0,0.471
1255.0,0.470
1260.0,0.470
1265.0,0.471
1270.0,0.472
1275.0,0.470
1280.0,0.472
1285.0,0.470
1290.0,0.471
1295.0,0.472
1300.0,0.472
1305.0,0.472
1310.0,0.471
1315.0,0.471
1320.0,0.472
1325.0,0.472
1330.0,0.472
1335.0,0.473
1340.0,0.472
1345.0,0.472
1350.0,0.472
1355.0,0.471
1360.0,0.472
1365.0,0.473
1370.0,0.473
1375.0,0.472
1380.0,0.474
1385.0,0.473
1390.0,0.472
1395.0,0.474
1400.0,0.473
1405.0,0.473
1410.0,0.473
1415.0,0.472
1420.0,0.473
1425.0,0.474
1430.0,0.472
1435.0,0.474
1440.0,0.474
1445.0,0.474
1450.0,0.473
1455.0,0.474
1460.0,0.474
1465.0,0.473
1470.0,0.474
1475.0,0.473
1480.0,0.474
1485.0,0.474
1490.0,0.474
1495.0,0.474
1500.0,0.475
1505.0,0.473
1510.0,0.473
1515.0,0.474
1520.0,0.474
1525.0,0.475
1530.0,0.474
1535.0,0.475
1540.0,0.475
1545.0,0.474
1550.0,0.475
1555.0,0.474
1560.0,0.475
1565.0,0.475
1570.0,0.475
1575.0,0.475
1580.0,0.475
1585.0,0.476
1590.0,0.476
1595.0,0.475
1600.0,0.477
1605.0,0.475
1610.0,0.475
1615.0,0.475
1620.0,0.476
1625.0,0.476
1630.0,0.476
1635.0,0.476
1640.0,0.476
1645.0,0.476
1650.0,0.476
1655.0,0.476
1660.0,0.478
1665.0,0.476
1670.0,0.477
1675.0,0.476
1680.0,0.477
1685.0,0.476
1690.0,0.477
1695.0,0.476
1700.0,0.478
1705.0,0.478
1710.0,0.477
1715.0,0.477
1720.0,0.477
1725.0,0.477
1730.0,0.478
1735.0,0.478
1740.0,0.478
1745.0,0.478
1750.0,0.478
1755.0,0.478
1760.0,0.478
1765.0,0.479
1770.0,0.479
1775.0,0.478
1780.0,0.477
1785.0,0.478
1790.0,0.478
1795.0,0.478
1800.0,0.478
1805.0,0.479
1810.0,0.480
1815.0,0.478
1820.0,0.479
1825.0,0.478
1830.0,0.479
1835.0,0.480
1840.0,0.478
1845.0,0.479
1850.0,0.480
1855.0,0.480
1860.0,0.479
1865.0,0.481
1870.0,0.479
1875.0,0.480
1880.0,0.480
1885.0,0.479
1890.0,0.480
1895.0,0.480
1900.0,0.480
1905.0,0.480
1910.0,0.480
1915.0,0.481
1920.0,0.480
1925.0,0.481
1930.0,0.480
1935.0,0.481
1940.0,0.481
1945.0,0.481
1950.0,0.481
1955.0,0.481
1960.0,0.481
1965.0,0.480
1970.0,0.480
1975.0,0.481
1980.0,0.481
1985.0,0.482
1990.0,0.482
1995.0,0.481
2000.0,0.482
2005.0,0.482
2010.0,0.481
2015.0,0.482
2020.0,0.482
2025.0,0.481
2030.0,0.481
2035.0,0.480
2040.0,0.482
2045.0,0.482
2050.0,0.482
2055.0,0.483
2060.0,0.482
2065.0,0.482
2070.0,0.483
2075.0,0.483
2080.0,0.482
2085.0,0.482
2090.0,0.483
2095.0,0.482
2100.0,0.483
2105.0,0.483
2110.0,0.482
2115.0,0.484
2120.0,0.483
2125.0,0.484
2130.0,0.483
2135.0,0.483
2140.0,0.483
2145.0,0.483
2150.0,0.483
2155.0,0.484
2160.0,0.485
2165.0,0.484
2170.0,0.483
2175.0,0.484
2180.0,0.483
2185.0,0.485
2190.0,0.485
2195.0,0.485
2200.0,0.484
2205.0,0.484
2210.0,0.484
2215.0,0.485
2220.0,0.485
2225.0,0.485
2230.0,0.485
2235.0,0.485
2240.0,0.485
2245.0,0.485
2250.0,0.486
2255.0,0.485
2260.0,0.485
2265.0,0.485
2270.0,0.486
2275.0,0.486
2280.0,0.485
2285.0,0.487
2290.0,0.486
2295.0,0.486
2300.0,0.487
2305.0,0.486
2310.0,0.487
2315.0,0.486
2320.0,0.486
2325.0,0.487
2330.0,0.486
2335.0,0.486
2340.0,0.487
2345.0,0.487
2350.0,0.486
2355.0,0.487
2360.0,0.486
2365.0,0.487
2370.0,0.487
2375.0,0.487
2380.0,0.488
2385.0,0.487
2390.0,0.488
2395.0,0.488
2400.0,0.489
2405.0,0.488
2410.0,0.488
2415.0,0.488
2420.0,0.488
2425.0,0.488
2430.0,0.489
2435.0,0.488
2440.0,0.489
2445.0,0.487
2450.0,0.489
2455.0,0.488
2460.0,0.490
2465.0,0.490
2470.0,0.491
2475.0,0.490
2480.0,0.489
2485.0,0.490
2490.0,0.489
2495.0,0.489
2500.0,0.490
2505.0,0.489
2510.0,0.490
2515.0,0.490
2520.0,0.490
2525.0,0.489
2530.0,0.490
2535.0,0.489
2540.0,0.490
2545.0,0.490
2550.0,0.489
2555.0,0.490
2560.0,0.491
2565.0,0.490
2570.0,0.490
2575.0,0.491
2580.0,0.491
2585.0,0.492
2590.0,0.490
2595.0,0.490
2600.0,0.491
2605.0,0.490
2610.0,0.490
2615.0,0.490
2620.0,0.491
2625.0,0.490
2630.0,0.491
2635.0,0.490
2640.0,0.491
2645.0,0.493
2650.0,0.493
2655.0,0.490
2660.0,0.491
2665.0,0.491
2670.0,0.491
2675.0,0.492
2680.0,0.492
2685.0,0.493
2690.0,0.492
2695.0,0.493
2700.0,0.491
2705.0,0.494
2710.0,0.494
2715.0,0.492
2720.0,0.492
2725.0,0.492
2730.0,0.492
2735.0,0.492
2740.0,0.492
2745.0,0.493
2750.0,0.494
2755.0,0.493
2760.0,0.493
2765.0,0.493
2770.0,0.495
2775.0,0.492
2780.0,0.494
2785.0,0.493
2790.0,0.492
2795.0,0.493
2800.0,0.494
2805.0,0.494
2810.0,0.492
2815.0,0.494
2820.0,0.493
2825.0,0.493
2830.0,0.494
2835.0,0.494
2840.0,0.494
2845.0,0.494
2850.0,0.494
2855.0,0.493
2860.0,0.493
2865.0,0.494
2870.0,0.494
2875.0,0.494
2880.0,0.495
2885.0,0.497
2890.0,0.495
2895.0,0.494
2900.0,0.494
2905.0,0.496
2910.0,0.495
2915.0,0.496
2920.0,0.494
2925.0,0.495
2930.0,0.496
2935.0,0.495
2940.0,0.496
2945.0,0.495
2950.0,0.495
2955.0,0.496
2960.0,0.495
2965.0,0.495
2970.0,0.496
2975.0,0.497
2980.0,0.496
2985.0,0.495
2990.0,0.497
2995.0,0.497
3000.0,0.496
3005.0,0.497
3010.0,0.495
3015.0,0.496
3020.0,0.497
3025.0,0.497
3030.0,0.496
3035.0,0.498
3040.0,0.497
3045.0,0.497
3050.0,0.497
3055.0,0.497
3060.0,0.497
3065.0,0.498
3070.0,0.497
3075.0,0.497
3080.0,0.498
3085.0,0.497
3090.0,0.497
3095.0,0.499
3100.0,0.498
3105.0,0.498
3110.0,0.499
3115.0,0.499
3120.0,0.497
3125.0,0.498
3130.0,0.499
3135.0,0.498
3140.0,0.499
3145.0,0.499
3150.0,0.499
3155.0,0.500
3160.0,0.500
3165.0,0.499
3170.0,0.499
3175.0,0.499
3180.0,0.500
3185.0,0.499
3190.0,0.499
3195.0,0.500
3200.0,0.500
3205.0,0.499
3210.0,0.501
3215.0,0.500
3220.0,0.500
3225.0,0.501
3230.0,0.500
3235.0,0.501
3240.0,0.499
3245.0,0.500
3250.0,0.500
3255.0,0.500
3260.0,0.501
3265.0,0.501
3270.0,0.502
3275.0,0.501
3280.0,0.501
3285.0,0.501
3290.0,0.502
3295.0,0.501
3300.0,0.500
3305.0,0.502
3310.0,0.502
3315.0,0.502
3320.0,0.502
3325.0,0.502
3330.0,0.503
3335.0,0.502
3340.0,0.502
3345.0,0.501
3350.0,0.503
3355.0,0.502
3360.0,0.502
3365.0,0.503
3370.0,0.503
3375.0,0.503
3380.0,0.503
3385.0,0.503
3390.0,0.503
3395.0,0.503
3400.0,0.503
3405.0,0.503
3410.0,0.502
3415.0,0.505
3420.0,0.503
3425.0,0.504
3430.0,0.504
3435.0,0.504
3440.0,0.504
3445.0,0.504
3450.0,0.505
3455.0,0.505
3460.0,0.505
3465.0,0.504
3470.0,0.504
3475.0,0.505
3480.0,0.505
3485.0,0.505
3490.0,0.503
3495.0,0.505
3500.0,0.504
3505.0,0.505
3510.0,0.505
3515.0,0.506
3520.0,0.505
3525.0,0.506
3530.0,0.506
3535.0,0.504
3540.0,0.505
3545.0,0.506
3550.0,0.505
3555.0,0.505
3560.0,0.506
3565.0,0.505
3570.0,0.505
3575.0,0.505
3580.0,0.508
3585.0,0.507
3590.0,0.505
3595.0,0.506
3600.0,0.506
