URL	chrom://pc-3vxg514/ChromeleonLocal/Data/2025/2025_w25.seq/940.smp/UV_VIS_2.channel/UV_VIS_2.chm
Channel	UV_VIS_2

Injection Information:
Data Vault	ChromeleonLocal
Sequence	2025_w25
Name	CA8393_16jun_SPAAC_DMSO_DIPEA
Number	52
Position	RE8
Comment	
Processing Method	General_ILK
Instrument Method	5-100pct_positive_3min
Type	Calibration Standard
Status	Finished
Inject Time	6/17/2025 8:18:30 AM +02:00
Volume (µl)	13.0000
Dilution Factor	1.0000
Weight	1.0000

Chromatogram Data Information:
Time Min. (min)	0.000000
Time Max. (min)	3.100000
Data Points	931
Detector	UV
Generating Data System	Chromeleon 7.3.2.11814
Exporting Data System	Chromeleon 7.3.2.0
Operator	Instrument Controller
Signal Quantity	Absorbance
Signal Unit	mAU
Signal Min.	-0.353841
Signal Max.	1,459.412012
Channel	UV_VIS_2
Driver Name	DAD3000.dll
Channel Type	Evaluation
Min. Step (s)	0.2
Max. Step (s)	0.2
Average Step (s)	0.2

Signal Parameter Information:
Signal Info	WVL:254 nm

Chromatogram Data:
Time (min)	Step (s)	Value (mAU)
0.000000	n.a.	0.000000
0.003333	0.2	-0.000175
0.006667	0.2	-0.001156
0.010000	0.2	-0.003603
0.013333	0.2	-0.007268
0.016667	0.2	-0.011115
0.020000	0.2	-0.014725
0.023333	0.2	-0.019235
0.026667	0.2	-0.026059
0.030000	0.2	-0.034697
0.033333	0.2	-0.043006
0.036667	0.2	-0.049290
0.040000	0.2	-0.052889
0.043333	0.2	-0.053667
0.046667	0.2	-0.052189
0.050000	0.2	-0.049693
0.053333	0.2	-0.047261
0.056667	0.2	-0.045633
0.060000	0.2	-0.045803
0.063333	0.2	-0.048621
0.066667	0.2	-0.053923
0.070000	0.2	-0.060692
0.073333	0.2	-0.067644
0.076667	0.2	-0.073606
0.080000	0.2	-0.077968
0.083333	0.2	-0.080933
0.086667	0.2	-0.083338
0.090000	0.2	-0.086217
0.093333	0.2	-0.090064
0.096667	0.2	-0.094523
0.100000	0.2	-0.098968
0.103333	0.2	-0.103023
0.106667	0.2	-0.106580
0.110000	0.2	-0.109587
0.113333	0.2	-0.112000
0.116667	0.2	-0.114029
0.120000	0.2	-0.116166
0.123333	0.2	-0.118852
0.126667	0.2	-0.122171
0.130000	0.2	-0.125822
0.133333	0.2	-0.129388
0.136667	0.2	-0.132520
0.140000	0.2	-0.134961
0.143333	0.2	-0.136816
0.146667	0.2	-0.138703
0.150000	0.2	-0.141250
0.153333	0.2	-0.144509
0.156667	0.2	-0.147863
0.160000	0.2	-0.150329
0.163333	0.2	-0.151146
0.166667	0.2	-0.151031
0.170000	0.2	0.153023
0.173333	0.2	3.871572
0.176667	0.2	21.612499
0.180000	0.2	69.274019
0.183333	0.2	153.082611
0.186667	0.2	256.952265
0.190000	0.2	348.936516
0.193333	0.2	400.551713
0.196667	0.2	402.025666
0.200000	0.2	364.982397
0.203333	0.2	313.666351
0.206667	0.2	270.776763
0.210000	0.2	246.673146
0.213333	0.2	238.602042
0.216667	0.2	237.891065
0.220000	0.2	237.152025
0.223333	0.2	233.113545
0.226667	0.2	226.032253
0.230000	0.2	217.521815
0.233333	0.2	208.440098
0.236667	0.2	198.221347
0.240000	0.2	185.327053
0.243333	0.2	168.173687
0.246667	0.2	146.723530
0.250000	0.2	123.599705
0.253333	0.2	102.873453
0.256667	0.2	87.266099
0.260000	0.2	76.709316
0.263333	0.2	69.727110
0.266667	0.2	65.740418
0.270000	0.2	65.377026
0.273333	0.2	68.747320
0.276667	0.2	74.311783
0.280000	0.2	79.418300
0.283333	0.2	81.266680
0.286667	0.2	77.775244
0.290000	0.2	68.543448
0.293333	0.2	55.194791
0.296667	0.2	40.539725
0.300000	0.2	27.228674
0.303333	0.2	16.849981
0.306667	0.2	9.780943
0.310000	0.2	5.545755
0.313333	0.2	3.307699
0.316667	0.2	2.249325
0.320000	0.2	1.764011
0.323333	0.2	1.491633
0.326667	0.2	1.267545
0.330000	0.2	1.045830
0.333333	0.2	0.833820
0.336667	0.2	0.650874
0.340000	0.2	0.509197
0.343333	0.2	0.409333
0.346667	0.2	0.343323
0.350000	0.2	0.300160
0.353333	0.2	0.270007
0.356667	0.2	0.246135
0.360000	0.2	0.224940
0.363333	0.2	0.204940
0.366667	0.2	0.185824
0.370000	0.2	0.167798
0.373333	0.2	0.151076
0.376667	0.2	0.135755
0.380000	0.2	0.121894
0.383333	0.2	0.109645
0.386667	0.2	0.099256
0.390000	0.2	0.090722
0.393333	0.2	0.083585
0.396667	0.2	0.077260
0.400000	0.2	0.071185
0.403333	0.2	0.064693
0.406667	0.2	0.057157
0.410000	0.2	0.048267
0.413333	0.2	0.038275
0.416667	0.2	0.027929
0.420000	0.2	0.017955
0.423333	0.2	0.008794
0.426667	0.2	0.000794
0.430000	0.2	-0.005899
0.433333	0.2	-0.011592
0.436667	0.2	-0.016567
0.440000	0.2	-0.020490
0.443333	0.2	-0.022880
0.446667	0.2	-0.023790
0.450000	0.2	-0.023448
0.453333	0.2	-0.021775
0.456667	0.2	-0.018507
0.460000	0.2	-0.013519
0.463333	0.2	-0.006925
0.466667	0.2	0.001128
0.470000	0.2	0.010574
0.473333	0.2	0.021279
0.476667	0.2	0.032941
0.480000	0.2	0.045055
0.483333	0.2	0.056791
0.486667	0.2	0.067111
0.490000	0.2	0.075429
0.493333	0.2	0.082139
0.496667	0.2	0.088183
0.500000	0.2	0.094012
0.503333	0.2	0.099358
0.506667	0.2	0.103992
0.510000	0.2	0.108089
0.513333	0.2	0.111921
0.516667	0.2	0.115498
0.520000	0.2	0.118193
0.523333	0.2	0.118945
0.526667	0.2	0.117442
0.530000	0.2	0.114635
0.533333	0.2	0.111611
0.536667	0.2	0.108588
0.540000	0.2	0.105263
0.543333	0.2	0.101518
0.546667	0.2	0.097539
0.550000	0.2	0.093366
0.553333	0.2	0.088568
0.556667	0.2	0.082538
0.560000	0.2	0.074787
0.563333	0.2	0.064851
0.566667	0.2	0.052507
0.570000	0.2	0.038341
0.573333	0.2	0.023640
0.576667	0.2	0.009517
0.580000	0.2	-0.003710
0.583333	0.2	-0.016458
0.586667	0.2	-0.029461
0.590000	0.2	-0.043254
0.593333	0.2	-0.058000
0.596667	0.2	-0.073635
0.600000	0.2	-0.089876
0.603333	0.2	-0.106182
0.606667	0.2	-0.121898
0.610000	0.2	-0.136616
0.613333	0.2	-0.150286
0.616667	0.2	-0.162871
0.620000	0.2	-0.174339
0.623333	0.2	-0.185036
0.626667	0.2	-0.195539
0.630000	0.2	-0.206226
0.633333	0.2	-0.217143
0.636667	0.2	-0.228128
0.640000	0.2	-0.238854
0.643333	0.2	-0.248828
0.646667	0.2	-0.257642
0.650000	0.2	-0.265349
0.653333	0.2	-0.272442
0.656667	0.2	-0.279195
0.660000	0.2	-0.285197
0.663333	0.2	-0.289967
0.666667	0.2	-0.293685
0.670000	0.2	-0.296926
0.673333	0.2	-0.300013
0.676667	0.2	-0.302846
0.680000	0.2	-0.305326
0.683333	0.2	-0.307736
0.686667	0.2	-0.310470
0.690000	0.2	-0.313665
0.693333	0.2	-0.317147
0.696667	0.2	-0.320493
0.700000	0.2	-0.323340
0.703333	0.2	-0.325770
0.706667	0.2	-0.328171
0.710000	0.2	-0.330713
0.713333	0.2	-0.333321
0.716667	0.2	-0.336043
0.720000	0.2	-0.338927
0.723333	0.2	-0.341634
0.726667	0.2	-0.343595
0.730000	0.2	-0.344597
0.733333	0.2	-0.345143
0.736667	0.2	-0.345995
0.740000	0.2	-0.347200
0.743333	0.2	-0.348059
0.746667	0.2	-0.348226
0.750000	0.2	-0.348139
0.753333	0.2	-0.348381
0.756667	0.2	-0.349289
0.760000	0.2	-0.350910
0.763333	0.2	-0.352740
0.766667	0.2	-0.353841
0.770000	0.2	-0.353756
0.773333	0.2	-0.353033
0.776667	0.2	-0.352412
0.780000	0.2	-0.351815
0.783333	0.2	-0.350506
0.786667	0.2	-0.347874
0.790000	0.2	-0.343752
0.793333	0.2	-0.338493
0.796667	0.2	-0.333151
0.800000	0.2	-0.328942
0.803333	0.2	-0.326236
0.806667	0.2	-0.324331
0.810000	0.2	-0.322081
0.813333	0.2	-0.318844
0.816667	0.2	-0.315034
0.820000	0.2	-0.311666
0.823333	0.2	-0.309359
0.826667	0.2	-0.307972
0.830000	0.2	-0.307114
0.833333	0.2	-0.306489
0.836667	0.2	-0.305692
0.840000	0.2	-0.304214
0.843333	0.2	-0.301758
0.846667	0.2	-0.298353
0.850000	0.2	-0.294214
0.853333	0.2	-0.289675
0.856667	0.2	-0.285114
0.860000	0.2	-0.280661
0.863333	0.2	-0.276133
0.866667	0.2	-0.271451
0.870000	0.2	-0.266921
0.873333	0.2	-0.262948
0.876667	0.2	-0.259271
0.880000	0.2	-0.254906
0.883333	0.2	-0.249441
0.886667	0.2	-0.243658
0.890000	0.2	-0.238377
0.893333	0.2	-0.233473
0.896667	0.2	-0.228374
0.900000	0.2	-0.222881
0.903333	0.2	-0.217261
0.906667	0.2	-0.211710
0.910000	0.2	-0.205859
0.913333	0.2	-0.199035
0.916667	0.2	-0.191068
0.920000	0.2	-0.182480
0.923333	0.2	-0.173948
0.926667	0.2	-0.165889
0.930000	0.2	-0.158376
0.933333	0.2	-0.151222
0.936667	0.2	-0.144164
0.940000	0.2	-0.136919
0.943333	0.2	-0.129138
0.946667	0.2	-0.120598
0.950000	0.2	-0.111474
0.953333	0.2	-0.101861
0.956667	0.2	-0.090869
0.960000	0.2	-0.076241
0.963333	0.2	-0.054441
0.966667	0.2	-0.020980
0.970000	0.2	0.029162
0.973333	0.2	0.101330
0.976667	0.2	0.200825
0.980000	0.2	0.331912
0.983333	0.2	0.496369
0.986667	0.2	0.692166
0.990000	0.2	0.913422
0.993333	0.2	1.151990
0.996667	0.2	1.399390
1.000000	0.2	1.648368
1.003333	0.2	1.893791
1.006667	0.2	2.132279
1.010000	0.2	2.361213
1.013333	0.2	2.577766
1.016667	0.2	2.777868
1.020000	0.2	2.955857
1.023333	0.2	3.105270
1.026667	0.2	3.219669
1.030000	0.2	3.292857
1.033333	0.2	3.319127
1.036667	0.2	3.294249
1.040000	0.2	3.216797
1.043333	0.2	3.089201
1.046667	0.2	2.918340
1.050000	0.2	2.714729
1.053333	0.2	2.490268
1.056667	0.2	2.256644
1.060000	0.2	2.024708
1.063333	0.2	1.803391
1.066667	0.2	1.598660
1.070000	0.2	1.413513
1.073333	0.2	1.248654
1.076667	0.2	1.103415
1.080000	0.2	0.976602
1.083333	0.2	0.866748
1.086667	0.2	0.772056
1.090000	0.2	0.690669
1.093333	0.2	0.621123
1.096667	0.2	0.562602
1.100000	0.2	0.514833
1.103333	0.2	0.477583
1.106667	0.2	0.449941
1.110000	0.2	0.430204
1.113333	0.2	0.416704
1.116667	0.2	0.408386
1.120000	0.2	0.404462
1.123333	0.2	0.404300
1.126667	0.2	0.407777
1.130000	0.2	0.414969
1.133333	0.2	0.425695
1.136667	0.2	0.439809
1.140000	0.2	0.457276
1.143333	0.2	0.477597
1.146667	0.2	0.499646
1.150000	0.2	0.522333
1.153333	0.2	0.545274
1.156667	0.2	0.568551
1.160000	0.2	0.591933
1.163333	0.2	0.614599
1.166667	0.2	0.635543
1.170000	0.2	0.654067
1.173333	0.2	0.669971
1.176667	0.2	0.683581
1.180000	0.2	0.695765
1.183333	0.2	0.707800
1.186667	0.2	0.721036
1.190000	0.2	0.736409
1.193333	0.2	0.754308
1.196667	0.2	0.774990
1.200000	0.2	0.798698
1.203333	0.2	0.825287
1.206667	0.2	0.854047
1.210000	0.2	0.883949
1.213333	0.2	0.914104
1.216667	0.2	0.944332
1.220000	0.2	0.975462
1.223333	0.2	1.008656
1.226667	0.2	1.044218
1.230000	0.2	1.081193
1.233333	0.2	1.117857
1.236667	0.2	1.152444
1.240000	0.2	1.183761
1.243333	0.2	1.211760
1.246667	0.2	1.237764
1.250000	0.2	1.263646
1.253333	0.2	1.290598
1.256667	0.2	1.318358
1.260000	0.2	1.345159
1.263333	0.2	1.368825
1.266667	0.2	1.388820
1.270000	0.2	1.407752
1.273333	0.2	1.430666
1.276667	0.2	1.462219
1.280000	0.2	1.503919
1.283333	0.2	1.553264
1.286667	0.2	1.604771
1.290000	0.2	1.652379
1.293333	0.2	1.692461
1.296667	0.2	1.726250
1.300000	0.2	1.761404
1.303333	0.2	1.813308
1.306667	0.2	1.906481
1.310000	0.2	2.117620
1.313333	0.2	2.949553
1.316667	0.2	6.715573
1.320000	0.2	20.135136
1.323333	0.2	56.147501
1.326667	0.2	131.248212
1.330000	0.2	257.386978
1.333333	0.2	433.453728
1.336667	0.2	643.310069
1.340000	0.2	861.851452
1.343333	0.2	1,064.042273
1.346667	0.2	1,231.273255
1.350000	0.2	1,353.442279
1.353333	0.2	1,428.255898
1.356667	0.2	1,459.412012
1.360000	0.2	1,454.419268
1.363333	0.2	1,422.402497
1.366667	0.2	1,372.249846
1.370000	0.2	1,311.391785
1.373333	0.2	1,245.287274
1.376667	0.2	1,177.476170
1.380000	0.2	1,109.957059
1.383333	0.2	1,043.671078
1.386667	0.2	978.942563
1.390000	0.2	915.802785
1.393333	0.2	854.187658
1.396667	0.2	794.035439
1.400000	0.2	735.319916
1.403333	0.2	678.052488
1.406667	0.2	622.276552
1.410000	0.2	568.064492
1.413333	0.2	515.519997
1.416667	0.2	464.785200
1.420000	0.2	416.047543
1.423333	0.2	369.537019
1.426667	0.2	325.506088
1.430000	0.2	284.194488
1.433333	0.2	245.793397
1.436667	0.2	210.427187
1.440000	0.2	178.162173
1.443333	0.2	149.034305
1.446667	0.2	123.073632
1.450000	0.2	100.305563
1.453333	0.2	80.726510
1.456667	0.2	64.267705
1.460000	0.2	50.765596
1.463333	0.2	39.953940
1.466667	0.2	31.483272
1.470000	0.2	24.960675
1.473333	0.2	19.995163
1.476667	0.2	16.235178
1.480000	0.2	13.390154
1.483333	0.2	11.234678
1.486667	0.2	9.600353
1.490000	0.2	8.363231
1.493333	0.2	7.432141
1.496667	0.2	6.739557
1.500000	0.2	6.235330
1.503333	0.2	5.883006
1.506667	0.2	5.657096
1.510000	0.2	5.539347
1.513333	0.2	5.513509
1.516667	0.2	5.559949
1.520000	0.2	5.652722
1.523333	0.2	5.761345
1.526667	0.2	5.856354
1.530000	0.2	5.915163
1.533333	0.2	5.925487
1.536667	0.2	5.885496
1.540000	0.2	5.801518
1.543333	0.2	5.684651
1.546667	0.2	5.547658
1.550000	0.2	5.402927
1.553333	0.2	5.261360
1.556667	0.2	5.131581
1.560000	0.2	5.019096
1.563333	0.2	4.925273
1.566667	0.2	4.846733
1.570000	0.2	4.776427
1.573333	0.2	4.706892
1.576667	0.2	4.634341
1.580000	0.2	4.562162
1.583333	0.2	4.502365
1.586667	0.2	4.472528
1.590000	0.2	4.487902
1.593333	0.2	4.552596
1.596667	0.2	4.654781
1.600000	0.2	4.768407
1.603333	0.2	4.861335
1.606667	0.2	4.907268
1.610000	0.2	4.895465
1.613333	0.2	4.832389
1.616667	0.2	4.735426
1.620000	0.2	4.624116
1.623333	0.2	4.514302
1.626667	0.2	4.416359
1.630000	0.2	4.335297
1.633333	0.2	4.271291
1.636667	0.2	4.220909
1.640000	0.2	4.179559
1.643333	0.2	4.144710
1.646667	0.2	4.117468
1.650000	0.2	4.100839
1.653333	0.2	4.097156
1.656667	0.2	4.108396
1.660000	0.2	4.139362
1.663333	0.2	4.200133
1.666667	0.2	4.305198
1.670000	0.2	4.470800
1.673333	0.2	4.712959
1.676667	0.2	5.045138
1.680000	0.2	5.473344
1.683333	0.2	5.989408
1.686667	0.2	6.564749
1.690000	0.2	7.147655
1.693333	0.2	7.669190
1.696667	0.2	8.060990
1.700000	0.2	8.279519
1.703333	0.2	8.324172
1.706667	0.2	8.239868
1.710000	0.2	8.104550
1.713333	0.2	8.008074
1.716667	0.2	8.029236
1.720000	0.2	8.216127
1.723333	0.2	8.573870
1.726667	0.2	9.063340
1.730000	0.2	9.611740
1.733333	0.2	10.130611
1.736667	0.2	10.535812
1.740000	0.2	10.765419
1.743333	0.2	10.791121
1.746667	0.2	10.619990
1.750000	0.2	10.287448
1.753333	0.2	9.844969
1.756667	0.2	9.346451
1.760000	0.2	8.836764
1.763333	0.2	8.345648
1.766667	0.2	7.887517
1.770000	0.2	7.465059
1.773333	0.2	7.075105
1.776667	0.2	6.714650
1.780000	0.2	6.383495
1.783333	0.2	6.083254
1.786667	0.2	5.815514
1.790000	0.2	5.580584
1.793333	0.2	5.376666
1.796667	0.2	5.199600
1.800000	0.2	5.043841
1.803333	0.2	4.904201
1.806667	0.2	4.777130
1.810000	0.2	4.661459
1.813333	0.2	4.558119
1.816667	0.2	4.468469
1.820000	0.2	4.392991
1.823333	0.2	4.331230
1.826667	0.2	4.282024
1.830000	0.2	4.243555
1.833333	0.2	4.213554
1.836667	0.2	4.189848
1.840000	0.2	4.170874
1.843333	0.2	4.155632
1.846667	0.2	4.143529
1.850000	0.2	4.134819
1.853333	0.2	4.131398
1.856667	0.2	4.137811
1.860000	0.2	4.162493
1.863333	0.2	4.217715
1.866667	0.2	4.315979
1.870000	0.2	4.463229
1.873333	0.2	4.652503
1.876667	0.2	4.862083
1.880000	0.2	5.060665
1.883333	0.2	5.218047
1.886667	0.2	5.314765
1.890000	0.2	5.345803
1.893333	0.2	5.319244
1.896667	0.2	5.251849
1.900000	0.2	5.162939
1.903333	0.2	5.068987
1.906667	0.2	4.980803
1.910000	0.2	4.903561
1.913333	0.2	4.838535
1.916667	0.2	4.784765
1.920000	0.2	4.740217
1.923333	0.2	4.702641
1.926667	0.2	4.669819
1.930000	0.2	4.639922
1.933333	0.2	4.612615
1.936667	0.2	4.589723
1.940000	0.2	4.574328
1.943333	0.2	4.568638
1.946667	0.2	4.572285
1.950000	0.2	4.582534
1.953333	0.2	4.596047
1.956667	0.2	4.610548
1.960000	0.2	4.625281
1.963333	0.2	4.640278
1.966667	0.2	4.655288
1.970000	0.2	4.669275
1.973333	0.2	4.680816
1.976667	0.2	4.689014
1.980000	0.2	4.693934
1.983333	0.2	4.695968
1.986667	0.2	4.695059
1.990000	0.2	4.690992
1.993333	0.2	4.684246
1.996667	0.2	4.676247
2.000000	0.2	4.669128
2.003333	0.2	4.665503
2.006667	0.2	4.667818
2.010000	0.2	4.677313
2.013333	0.2	4.693523
2.016667	0.2	4.714441
2.020000	0.2	4.737123
2.023333	0.2	4.758693
2.026667	0.2	4.777120
2.030000	0.2	4.791296
2.033333	0.2	4.800955
2.036667	0.2	4.806582
2.040000	0.2	4.809024
2.043333	0.2	4.809156
2.046667	0.2	4.807971
2.050000	0.2	4.806664
2.053333	0.2	4.806425
2.056667	0.2	4.808120
2.060000	0.2	4.812316
2.063333	0.2	4.819487
2.066667	0.2	4.829899
2.070000	0.2	4.843421
2.073333	0.2	4.859356
2.076667	0.2	4.876332
2.080000	0.2	4.892808
2.083333	0.2	4.907864
2.086667	0.2	4.921356
2.090000	0.2	4.933503
2.093333	0.2	4.944567
2.096667	0.2	4.954878
2.100000	0.2	4.964899
2.103333	0.2	4.975190
2.106667	0.2	4.986415
2.110000	0.2	4.999276
2.113333	0.2	5.014461
2.116667	0.2	5.032909
2.120000	0.2	5.056221
2.123333	0.2	5.087437
2.126667	0.2	5.132252
2.130000	0.2	5.198898
2.133333	0.2	5.294942
2.136667	0.2	5.422171
2.140000	0.2	5.572719
2.143333	0.2	5.729359
2.146667	0.2	5.870498
2.150000	0.2	5.976921
2.153333	0.2	6.036678
2.156667	0.2	6.046885
2.160000	0.2	6.012852
2.163333	0.2	5.945616
2.166667	0.2	5.858842
2.170000	0.2	5.765579
2.173333	0.2	5.675925
2.176667	0.2	5.596519
2.180000	0.2	5.531196
2.183333	0.2	5.481556
2.186667	0.2	5.447291
2.190000	0.2	5.426729
2.193333	0.2	5.417527
2.196667	0.2	5.417208
2.200000	0.2	5.423560
2.203333	0.2	5.434748
2.206667	0.2	5.449114
2.210000	0.2	5.465096
2.213333	0.2	5.481596
2.216667	0.2	5.498124
2.220000	0.2	5.513923
2.223333	0.2	5.527366
2.226667	0.2	5.537165
2.230000	0.2	5.543955
2.233333	0.2	5.549979
2.236667	0.2	5.557352
2.240000	0.2	5.567040
2.243333	0.2	5.579410
2.246667	0.2	5.594845
2.250000	0.2	5.613478
2.253333	0.2	5.634825
2.256667	0.2	5.657779
2.260000	0.2	5.680941
2.263333	0.2	5.703032
2.266667	0.2	5.723001
2.270000	0.2	5.740153
2.273333	0.2	5.754422
2.276667	0.2	5.766210
2.280000	0.2	5.775958
2.283333	0.2	5.783908
2.286667	0.2	5.790101
2.290000	0.2	5.794799
2.293333	0.2	5.798819
2.296667	0.2	5.803212
2.300000	0.2	5.808950
2.303333	0.2	5.816969
2.306667	0.2	5.828089
2.310000	0.2	5.842977
2.313333	0.2	5.862157
2.316667	0.2	5.885930
2.320000	0.2	5.914247
2.323333	0.2	5.946130
2.326667	0.2	5.979241
2.330000	0.2	6.010781
2.333333	0.2	6.038757
2.336667	0.2	6.062308
2.340000	0.2	6.081558
2.343333	0.2	6.097342
2.346667	0.2	6.110657
2.350000	0.2	6.122320
2.353333	0.2	6.133187
2.356667	0.2	6.144361
2.360000	0.2	6.156663
2.363333	0.2	6.169769
2.366667	0.2	6.182549
2.370000	0.2	6.194464
2.373333	0.2	6.206113
2.376667	0.2	6.218411
2.380000	0.2	6.231658
2.383333	0.2	6.245438
2.386667	0.2	6.259491
2.390000	0.2	6.274345
2.393333	0.2	6.290696
2.396667	0.2	6.308820
2.400000	0.2	6.328646
2.403333	0.2	6.349578
2.406667	0.2	6.370542
2.410000	0.2	6.390682
2.413333	0.2	6.409568
2.416667	0.2	6.426978
2.420000	0.2	6.443025
2.423333	0.2	6.458401
2.426667	0.2	6.474193
2.430000	0.2	6.491259
2.433333	0.2	6.509683
2.436667	0.2	6.528971
2.440000	0.2	6.548701
2.443333	0.2	6.568761
2.446667	0.2	6.589227
2.450000	0.2	6.610086
2.453333	0.2	6.630887
2.456667	0.2	6.650942
2.460000	0.2	6.669852
2.463333	0.2	6.687703
2.466667	0.2	6.704922
2.470000	0.2	6.722186
2.473333	0.2	6.740595
2.476667	0.2	6.761536
2.480000	0.2	6.785809
2.483333	0.2	6.812929
2.486667	0.2	6.841545
2.490000	0.2	6.870496
2.493333	0.2	6.899183
2.496667	0.2	6.927119
2.500000	0.2	6.953761
2.503333	0.2	6.978849
2.506667	0.2	7.002492
2.510000	0.2	7.025020
2.513333	0.2	7.047017
2.516667	0.2	7.069551
2.520000	0.2	7.094150
2.523333	0.2	7.122337
2.526667	0.2	7.154974
2.530000	0.2	7.191640
2.533333	0.2	7.230512
2.536667	0.2	7.268955
2.540000	0.2	7.304498
2.543333	0.2	7.335951
2.546667	0.2	7.363767
2.550000	0.2	7.389260
2.553333	0.2	7.414001
2.556667	0.2	7.439744
2.560000	0.2	7.467953
2.563333	0.2	7.499142
2.566667	0.2	7.532725
2.570000	0.2	7.567529
2.573333	0.2	7.602408
2.576667	0.2	7.636290
2.580000	0.2	7.668406
2.583333	0.2	7.699338
2.586667	0.2	7.730955
2.590000	0.2	7.764126
2.593333	0.2	7.797465
2.596667	0.2	7.829455
2.600000	0.2	7.860694
2.603333	0.2	7.893044
2.606667	0.2	7.927681
2.610000	0.2	7.964738
2.613333	0.2	8.003781
2.616667	0.2	8.044034
2.620000	0.2	8.085267
2.623333	0.2	8.128874
2.626667	0.2	8.176367
2.630000	0.2	8.226892
2.633333	0.2	8.278191
2.636667	0.2	8.329041
2.640000	0.2	8.379105
2.643333	0.2	8.427358
2.646667	0.2	8.471841
2.650000	0.2	8.510917
2.653333	0.2	8.544246
2.656667	0.2	8.572800
2.660000	0.2	8.598809
2.663333	0.2	8.625354
2.666667	0.2	8.654847
2.670000	0.2	8.687842
2.673333	0.2	8.723737
2.676667	0.2	8.761958
2.680000	0.2	8.802176
2.683333	0.2	8.844321
2.686667	0.2	8.888619
2.690000	0.2	8.935309
2.693333	0.2	8.984489
2.696667	0.2	9.036046
2.700000	0.2	9.089486
2.703333	0.2	9.144248
2.706667	0.2	9.200399
2.710000	0.2	9.258940
2.713333	0.2	9.321151
2.716667	0.2	9.387148
2.720000	0.2	9.454947
2.723333	0.2	9.521084
2.726667	0.2	9.582102
2.730000	0.2	9.635745
2.733333	0.2	9.681522
2.736667	0.2	9.720563
2.740000	0.2	9.755498
2.743333	0.2	9.790126
2.746667	0.2	9.827680
2.750000	0.2	9.869133
2.753333	0.2	9.913241
2.756667	0.2	9.957712
2.760000	0.2	10.000715
2.763333	0.2	10.041827
2.766667	0.2	10.081883
2.770000	0.2	10.122301
2.773333	0.2	10.164213
2.776667	0.2	10.208155
2.780000	0.2	10.254632
2.783333	0.2	10.304120
2.786667	0.2	10.356286
2.790000	0.2	10.409782
2.793333	0.2	10.462708
2.796667	0.2	10.513478
2.800000	0.2	10.561882
2.803333	0.2	10.609206
2.806667	0.2	10.656876
2.810000	0.2	10.704790
2.813333	0.2	10.751471
2.816667	0.2	10.796570
2.820000	0.2	10.842480
2.823333	0.2	10.892408
2.826667	0.2	10.947268
2.830000	0.2	11.004873
2.833333	0.2	11.061752
2.836667	0.2	11.115579
2.840000	0.2	11.166321
2.843333	0.2	11.215684
2.846667	0.2	11.265676
2.850000	0.2	11.317155
2.853333	0.2	11.369352
2.856667	0.2	11.421406
2.860000	0.2	11.474194
2.863333	0.2	11.529278
2.866667	0.2	11.586367
2.870000	0.2	11.642957
2.873333	0.2	11.696336
2.876667	0.2	11.745669
2.880000	0.2	11.792133
2.883333	0.2	11.837482
2.886667	0.2	11.882865
2.890000	0.2	11.928546
2.893333	0.2	11.974781
2.896667	0.2	12.023004
2.900000	0.2	12.075091
2.903333	0.2	12.131080
2.906667	0.2	12.188068
2.910000	0.2	12.241808
2.913333	0.2	12.289709
2.916667	0.2	12.332098
2.920000	0.2	12.371201
2.923333	0.2	12.409752
2.926667	0.2	12.450058
2.930000	0.2	12.493218
2.933333	0.2	12.538514
2.936667	0.2	12.583770
2.940000	0.2	12.626775
2.943333	0.2	12.666446
2.946667	0.2	12.702839
2.950000	0.2	12.736588
2.953333	0.2	12.768699
2.956667	0.2	12.800567
2.960000	0.2	12.833719
2.963333	0.2	12.869283
2.966667	0.2	12.907450
2.970000	0.2	12.947383
2.973333	0.2	12.987656
2.976667	0.2	13.026616
2.980000	0.2	13.062678
2.983333	0.2	13.094809
2.986667	0.2	13.122809
2.990000	0.2	13.147347
2.993333	0.2	13.169940
2.996667	0.2	13.192433
3.000000	0.2	13.216315
3.003333	0.2	13.242538
3.006667	0.2	13.271431
3.010000	0.2	13.302397
3.013333	0.2	13.334001
3.016667	0.2	13.364698
3.020000	0.2	13.393378
3.023333	0.2	13.418959
3.026667	0.2	13.440187
3.030000	0.2	13.456781
3.033333	0.2	13.470477
3.036667	0.2	13.484371
3.040000	0.2	13.501276
3.043333	0.2	13.522432
3.046667	0.2	13.547250
3.050000	0.2	13.574174
3.053333	0.2	13.601757
3.056667	0.2	13.628684
3.060000	0.2	13.653144
3.063333	0.2	13.673338
3.066667	0.2	13.689064
3.070000	0.2	13.702504
3.073333	0.2	13.717181
3.076667	0.2	13.735784
3.080000	0.2	13.758168
3.083333	0.2	13.781132
3.086667	0.2	13.801388
3.090000	0.2	13.819179
3.093333	0.2	13.837608
3.096667	0.2	13.858779
3.100000	0.2	13.881796
