URL	chrom://pc-3vxg514/ChromeleonLocal/Data/2025/2025_w25.seq/940.smp/ISQEC.xraw
Channel	UV_VIS_2

Injection Information:
Data Vault	ChromeleonLocal
Sequence	2025_w25
Name	CA8393_16jun_SPAAC_DMSO_DIPEA
Number	52
Position	RE8
Comment	
Processing Method	General_ILK
Instrument Method	5-100pct_positive_3min
Type	Calibration Standard
Status	Finished
Inject Time	6/17/2025 8:18:30 AM +02:00
Volume (µl)	13.0000
Dilution Factor	1.0000
Weight	1.0000

Raw Data Information:
Data Points	1217
Mass Min. (m/z)	100.000000
Mass Max. (m/z)	1,200.092043
Retention Time (min)	1.357130
Mass Resolution	0.500000
Tolerance Unit	Amu
Scan Number	607
Scan Type	+ c ESI sid=20.00 Full ms [100.000-1200.000]
Is Centroid Scan	True
Base Peak Mass	407.131287
Base Peak Intensity	93,186,296.000000
Total Ion Count	157,345,990.124910

Raw Data:
Mass (m/z)	Value (counts)
100.0	34.777584
101.2	19,170.457031
102.0	12,742.801758
102.6	5,165.298340
103.6	0.487578
104.7	8,201.038086
105.3	3,462.103760
106.3	1,984.336670
107.3	0.090530
107.8	3,143.118896
108.7	323.386719
109.4	0.066688
109.9	0.000056
110.6	118.742622
111.3	0.000044
111.8	0.000005
112.8	0.245277
113.4	0.005058
114.3	0.000011
114.8	0.141088
116.2	1,672.516602
117.7	17,712.960938
118.4	40,930.800781
119.6	88,874.585938
120.3	344,651.062500
121.3	17,190.419922
122.0	6,096.118164
122.7	2,869.552979
123.5	1,425.786743
124.4	5,022.261719
125.5	0.319245
126.1	0.000029
127.3	1,069.072388
128.0	13.823541
128.6	3,675.229492
129.3	10,477.529297
129.8	26,317.785156
130.4	170,604.750000
131.4	14,338.269531
132.7	1,711.576904
133.2	132.380936
134.1	0.005341
134.9	0.060529
136.1	410.025238
137.0	0.050326
138.1	0.088589
138.6	0.000002
140.2	4,574.285645
141.7	19,419.154297
142.4	40,400.847656
143.3	1,321.152832
144.2	3,627.321045
144.8	0.291312
145.5	0.090875
146.2	2,227.135254
146.9	2,813.689209
147.7	343.132477
148.4	0.032074
149.3	0.001718
150.2	0.165086
150.8	0.014021
151.4	65.111450
152.5	548.402466
153.5	615.265442
154.7	0.068215
156.5	19,396.052734
157.2	39,789.058594
157.8	5,483.096680
158.4	236.274139
159.2	735.697998
160.2	4.378974
161.0	46.283329
162.2	0.012558
163.4	0.958900
164.6	1,985.757568
165.6	2,494.470459
166.5	221.767075
167.3	0.291916
168.3	4,960.973145
169.4	1.777449
170.4	247.824402
171.3	1,850.802734
172.0	0.011942
173.2	0.100675
174.2	1,404.279419
176.0	1,618.869751
177.0	2,445.456299
177.8	4,139.833496
178.6	1,500.886475
179.4	579.552063
180.0	0.101743
180.8	3,067.503418
181.5	4,110.081055
182.2	290.624390
183.2	1,621.570801
184.0	10.312341
185.1	0.420522
185.7	0.192595
186.5	0.091770
187.5	0.244610
188.1	0.039786
188.7	0.116434
189.3	0.000000
189.9	203.751541
190.8	0.000000
191.4	0.000003
192.0	277.762054
192.6	0.019931
193.8	616.910278
194.5	1,949.675903
195.5	0.097171
196.9	0.457857
197.5	0.032427
198.6	0.092425
199.2	0.019954
200.1	0.021946
201.6	1.988759
202.3	0.078649
203.9	286.729187
204.7	0.000127
205.7	0.391289
206.3	12.114467
207.1	2.087686
207.8	704.195190
208.5	15.991325
209.1	730.114075
210.0	1,678.337158
211.2	2,977.311279
211.8	0.078225
212.7	2,133.447754
213.6	10.123615
214.3	3,231.542725
214.9	0.000002
215.4	9.021057
217.1	758.827881
218.1	50.197906
219.5	6,711.604492
220.3	4,525.710938
220.8	0.327661
221.5	62.485470
222.4	4,244.773438
224.1	15,309.940430
225.2	3,548.094971
225.9	0.155156
226.5	0.124907
227.1	812.603760
228.2	0.219699
228.8	0.546643
229.6	608.010132
230.8	7.595588
231.8	2,488.104492
233.4	0.583205
233.9	0.021797
236.2	0.202951
237.2	1,728.960205
237.8	0.192694
238.5	0.409177
239.6	2,407.445557
241.0	3,102.750000
241.8	0.075146
242.3	0.002539
243.4	0.350629
245.0	303.618347
245.6	603.020142
246.1	72.145012
246.9	3,058.278320
247.8	0.570307
248.4	655.115173
249.1	0.058266
250.6	1,932.265015
252.1	0.316416
253.0	0.232746
254.2	794.849487
255.6	1,280.280640
256.9	7,983.166016
257.4	1,276.012329
258.3	644.153503
259.2	239.185196
261.0	3,095.089844
262.7	4,937.464355
263.8	695.382996
264.6	0.451931
265.9	0.339481
267.3	0.060727
268.4	1,984.989624
268.9	549.539917
270.0	6,191.750000
270.7	0.344345
271.5	0.563081
272.3	0.468792
273.6	460.585388
274.6	737.705933
275.3	0.049591
276.7	0.149153
277.5	0.121438
278.2	2,340.867920
279.4	602.180481
280.1	0.185737
280.8	0.478382
282.3	1,257.490112
283.0	893.691833
285.4	2,463.016357
286.6	0.190752
287.1	0.450429
287.7	68.303116
288.5	0.550892
289.0	3,531.888916
289.9	0.197821
290.5	0.000024
291.1	0.085914
292.3	0.013922
293.2	0.013645
294.1	0.115921
294.8	53.048611
295.9	0.254398
296.7	1,731.945313
297.8	4,408.895020
299.1	3,145.854736
299.9	4,485.132324
300.4	2.235226
301.1	118.666832
301.9	5,798.458984
302.5	363.114685
303.6	239.957321
304.3	618.843567
305.7	1,857.456177
306.3	278.345886
307.0	0.011539
308.0	1,976.181519
308.7	1,464.073853
309.6	2,403.574707
310.1	116.863762
310.7	3,737.022217
311.4	292.481781
312.5	365.425659
313.4	1.718840
314.6	4,915.981934
315.3	9,428.293945
316.0	587.481018
316.9	15.960265
317.8	0.217013
318.6	91.658775
319.2	718.649414
320.2	7,913.246582
320.9	0.781976
321.5	390.724304
322.3	638.532532
323.0	151.271759
324.3	8,168.017090
325.6	12.654274
326.7	0.012348
327.5	4,740.724609
329.0	896.458069
329.7	3,489.106689
330.6	0.091256
331.1	0.092448
332.2	1,105.817383
333.3	843.349731
333.9	3,156.894531
334.5	2,385.931641
336.0	8,691.639648
336.7	4,506.494141
337.3	1,682.448608
338.0	566.733704
338.5	2,453.668701
339.3	295.630951
340.3	1,297.786133
341.0	2,368.396729
342.2	10,453.578125
343.0	3,585.449707
344.2	1,116.312134
345.3	5,856.768555
346.1	1,150.110718
346.6	461.017273
347.5	1,969.899780
348.1	9,869.558594
348.7	4,282.204102
349.9	9,416.402344
350.6	7,813.893066
351.4	9,993.025391
352.2	84,933.421875
353.3	26,027.550781
354.1	16,941.716797
354.9	8,447.144531
355.8	1,807.056396
356.3	827.459717
357.6	7,709.532715
358.3	21,411.884766
359.1	9,157.948242
360.3	12,086.711914
361.3	219.742783
362.6	7,116.226563
363.9	31,994.111328
365.1	16,138.941406
366.1	39,792.453125
367.1	9,885.155273
368.0	42,616.828125
369.3	8,371.277344
370.1	20,015.957031
371.1	12,735.183594
372.0	1,703.488647
372.6	0.269615
373.3	1,981.933716
374.3	2,432.587891
375.9	196.260315
377.0	119,531.328125
377.5	42,984.156250
378.2	31,362.972656
378.7	6,509.253418
379.2	24,830.648438
380.1	19,245.558594
381.4	12,027.604492
382.0	2,401.591309
382.7	5,975.791504
383.9	14,062.825195
384.5	14,046.031250
385.4	4,201.907715
386.5	2,018.316040
387.4	3,552.125000
388.2	821.213379
389.0	175.656265
390.0	0.367566
390.9	2,565.053711
391.5	1,233.505615
392.9	13,894.413086
393.9	21,982.941406
394.8	8,348.916016
395.5	27,580.089844
396.2	42,051.859375
397.4	28,941.162109
398.2	43,185.101563
399.1	6,023.673828
399.7	4,625.260254
400.8	7,262.379395
401.4	111.087585
402.5	7,637.203613
403.5	327.776520
404.6	46,554.050781
405.3	174,483.296875
407.1	93,186,296.000000
408.3	18,247,274.000000
409.3	2,484,787.250000
410.4	204,912.078125
411.5	31,164.607422
412.2	53,645.835938
413.1	14,938.486328
413.9	14,033.200195
414.8	5,307.788086
416.0	6,428.223633
417.0	3,291.311768
418.1	3,223.260254
419.1	1,042.801514
419.7	1,228.809692
420.9	758,021.500000
421.5	484,294.531250
422.3	172,686.390625
423.2	142,428.328125
424.4	81,221.187500
425.3	80,262.554688
426.1	21,506.076172
426.9	9,381.638672
428.0	5,732.206543
429.1	98,162.898438
430.2	33,601.312500
431.0	15,314.549805
431.7	9,699.802734
432.2	1,270.295898
432.9	26.672512
433.7	5,622.290527
434.6	22,933.703125
435.6	1,430.544312
436.3	4,538.196289
437.0	11,728.632813
437.7	24,361.732422
438.3	9,715.234375
439.2	14,549.294922
440.1	8,171.502930
440.9	6,650.160645
442.0	5,595.021973
443.4	5,198.533203
444.1	14,758.589844
444.8	61,741.339844
445.3	34,881.074219
446.2	30,882.363281
447.9	14,613,122.000000
448.6	8,706,116.000000
449.3	3,270,292.000000
450.2	821,345.562500
451.3	98,699.351563
452.3	13,462.639648
453.1	5,187.275391
454.2	10,647.542969
455.2	4,144.608887
456.1	10,394.292969
457.1	10,853.231445
457.8	7,245.226563
458.8	13,182.627930
459.4	62.806232
459.9	14,461.830078
461.3	3,645.111816
462.1	3,832.598145
462.9	61.421497
463.7	6,361.985840
464.3	6,673.518066
465.2	2,582.857422
466.0	8,129.006348
466.9	16,796.798828
467.4	17,588.857422
468.4	7,736.329590
469.0	939.937561
470.0	674,233.187500
471.3	207,792.250000
472.5	6,247.703613
473.1	632.309448
474.3	6,641.484863
475.1	25,210.253906
475.9	12,959.443359
477.0	7,692.140625
478.1	7,222.998047
479.1	10,214.941406
480.0	56,304.523438
480.9	23,842.845703
481.6	7,923.186523
482.5	2,183.493164
483.3	1,577.727295
483.9	5,949.220703
485.1	1,813,344.750000
486.2	377,796.781250
487.0	102,555.835938
487.5	46,033.984375
488.4	34,762.597656
489.2	12,205.087891
490.2	1,465.481812
490.9	3,619.292969
492.5	11,884.893555
493.5	3,137.527588
494.2	2,510.091064
494.9	2,558.166016
495.9	4,961.669434
497.3	3,967.737061
498.0	9,695.007813
498.7	1,692.265137
499.2	1,203.054443
500.0	6,262.077148
500.6	27.659319
501.6	5,212.547852
502.1	462.293640
502.8	3,141.011475
503.6	8,096.388672
504.3	6.117229
504.8	0.718251
505.5	2,402.551270
506.3	6,290.056152
507.0	204,695.156250
507.9	63,442.714844
508.6	25,724.904297
509.4	11,940.118164
510.1	12,366.280273
510.7	64.084641
511.4	5,724.255371
512.0	30,051.507813
512.5	9,952.019531
513.3	2,789.323730
514.0	3,481.613770
515.1	930.719543
515.9	2,456.815186
517.1	3,159.388428
518.2	1,188.756470
518.7	0.513511
519.3	432.358643
519.8	1,051.700195
521.7	1,211.691406
522.6	445.815887
523.8	409,303.906250
524.4	460,238.000000
525.3	157,903.921875
526.1	42,185.531250
527.1	19,763.906250
528.0	3,007.463623
528.9	2,791.077393
530.2	5,520.716797
531.0	3,057.968018
531.9	129.478867
532.6	0.532779
533.4	6,354.516602
534.1	23,806.728516
535.0	6,058.722168
536.0	3,411.944336
536.6	1,252.541992
537.3	3,262.667725
538.9	18,277.941406
539.5	135.620529
540.5	4,781.196777
541.2	811.113281
542.1	3,155.276611
542.9	4,237.195313
544.1	2,315.878174
544.8	2,820.897705
545.5	1,748.697998
546.1	1,450.281128
546.9	3,010.498291
548.4	1,025.713623
549.2	872.595154
549.9	4,250.625488
550.4	645.795349
551.1	995.161133
551.8	2,147.414063
552.6	2,746.335693
553.1	1,220.649170
553.9	5,247.648438
555.2	2,118.764160
555.8	1,025.911011
556.3	1,591.450073
557.1	735.135620
557.8	1,181.260498
558.3	1,018.292175
559.2	1,399.007446
560.1	332.354767
561.5	750.850952
563.0	1,256.121948
563.8	298.500671
565.0	1.738779
565.5	0.150788
566.4	0.055603
567.0	345.717072
568.8	354.476563
569.3	1,523.357056
570.3	1,842.605591
571.4	44.419239
572.2	1,063.056519
573.0	39.711052
574.7	1,150.910400
575.2	2,329.685547
576.0	433.590668
577.1	2,567.452148
578.2	1,372.769897
579.5	4,289.420898
580.5	1,746.044800
581.1	0.137283
581.9	188.069321
582.4	907.059448
583.3	0.207626
584.3	214.129303
584.9	1.020049
585.6	448.719940
586.6	0.291345
587.4	1,022.300964
588.2	144.394409
589.0	3,493.822510
589.7	21.060812
590.9	1,541.927856
591.6	400.807556
592.6	3,859.310791
593.8	1,756.663940
594.7	691.294128
595.4	80.365494
596.1	638.458435
597.0	2,733.679932
598.2	1,726.766724
598.8	0.350325
599.7	2,258.544922
600.4	434.949921
601.0	18.947334
602.1	2,904.481201
602.6	101.322609
603.3	0.016815
603.9	228.429321
605.3	0.231914
606.0	0.000061
607.0	1.247560
607.6	0.000013
608.2	411.584686
609.0	977.022278
609.7	269.714172
610.4	0.150999
612.2	76.674889
613.5	0.127004
614.2	0.022294
614.9	0.331486
615.5	159.457840
616.7	2,395.159180
617.5	168.086823
618.3	307.600708
619.7	107.663078
620.9	213.813980
622.0	1,420.885010
623.2	1.444365
624.0	0.201658
624.8	210.753860
625.5	58.187187
626.2	1,562.012329
627.2	414.507813
628.0	482.212952
629.1	1,371.258057
629.8	16.993052
630.4	59.440601
632.0	152.042252
633.2	0.059107
634.1	0.041288
634.6	0.000004
635.5	176.793457
636.7	100.698372
637.5	7.585852
638.1	0.210096
639.1	48.621742
640.2	3,838.790039
640.9	798.374451
642.2	895.968933
643.3	0.000923
644.0	4.854690
644.8	0.000002
645.8	0.000006
646.6	0.010828
647.3	0.000002
647.8	0.084192
648.4	0.078344
649.4	941.064209
650.1	0.050513
651.4	1,390.456177
652.1	0.017762
653.2	1,089.239502
654.3	225.485458
655.1	1.032018
655.6	8.158067
656.3	0.000000
656.9	0.045777
657.9	2,045.775146
658.7	0.000000
659.3	0.286882
660.0	0.175208
660.7	0.019281
661.9	0.021414
662.7	141.178116
663.5	682.596741
664.2	0.000011
665.4	0.103376
667.3	365.308929
668.3	0.468409
669.0	568.004883
670.3	2,203.416260
671.5	12,137.942383
672.3	1,942.571167
673.1	681.885620
673.9	786.433044
675.2	0.068698
676.0	0.000006
676.8	0.000000
677.4	0.000000
678.6	0.000003
679.5	467.091736
680.4	24.017042
680.9	0.283718
681.4	0.060391
682.1	0.001685
682.9	919.901550
683.4	866.932922
684.4	2.803171
685.1	4,701.741699
686.0	0.000318
687.1	2,024.753906
687.7	209.597961
688.9	3,046.948975
689.6	760.795959
690.4	5.107349
691.0	0.000007
692.0	137.149918
693.0	951.624390
693.7	0.000943
694.9	309.622681
696.1	0.000026
696.6	486.999908
697.4	10.565259
698.5	0.071446
699.9	1,616.255615
701.3	1,971.381226
702.0	2,806.672363
703.2	3,065.605225
704.3	1,743.909302
704.9	1,268.386475
705.8	0.401991
707.2	891.874268
707.8	176.671951
709.3	116.564278
710.1	0.016422
710.7	402.321838
712.2	715.497864
713.0	0.039625
713.9	0.000074
714.5	0.036308
715.3	1,612.946411
715.8	2,740.285645
717.0	1,500.434570
717.7	0.962193
719.3	815.365601
720.3	0.394036
721.4	349.263763
722.4	1,570.708740
723.4	0.129438
724.2	0.000003
724.9	0.000000
726.0	724.896118
727.2	239.852600
728.8	981.922913
729.5	0.028340
730.5	0.000000
731.4	1.232374
732.2	0.000786
732.9	0.000000
733.5	0.000000
734.7	2,309.363525
735.3	0.395814
735.8	1,249.366821
737.2	1,045.770386
738.1	0.000017
738.6	0.000000
740.1	3,796.622070
741.6	1.131197
742.1	492.169250
743.3	14.698553
744.8	2,981.695313
745.3	3,867.519775
746.3	1,003.832397
747.5	0.147327
748.2	0.748199
749.4	170.548569
750.0	0.000001
751.2	230.896652
752.3	189.480270
753.4	7,623.142578
754.3	0.141229
754.9	0.294289
756.0	0.155378
757.3	88.533699
758.8	2,677.596436
759.4	69.693909
760.4	1,608.557983
761.3	0.061360
762.3	0.274954
763.3	0.055303
764.5	892.005798
765.2	0.000000
765.8	0.018400
766.8	0.000003
767.6	72.718590
768.1	0.000002
768.7	0.000003
769.4	96.754410
770.1	0.028896
770.7	0.000001
771.6	0.000000
772.5	0.108295
773.8	0.010940
775.4	4.584347
776.3	1.426270
777.1	339.913666
777.7	0.017480
778.9	0.016597
780.2	163.229691
781.0	295.085938
782.0	0.025504
782.5	8.747025
783.1	9.842367
784.3	70.940689
784.8	0.000000
785.9	0.018194
786.8	0.000000
788.1	576.226624
789.3	0.050523
790.1	48.202255
791.1	1,355.400146
791.9	541.793213
792.5	0.019836
794.2	1,025.911499
794.9	2,410.138428
795.7	0.000000
796.4	945.448364
796.9	0.013356
797.5	0.000000
798.9	4,362.673828
800.1	456.388489
800.7	0.013235
801.2	0.000000
801.9	0.000000
803.4	346.540527
804.1	152.944122
805.4	0.188628
806.6	0.065983
807.3	0.000000
808.0	35.170250
808.5	0.131639
810.3	332.076477
811.2	16,247.820313
812.4	33,853.703125
813.4	3,204,971.750000
814.3	1,361,045.500000
815.3	656,370.000000
816.4	71,294.726563
817.3	18,730.957031
818.3	3,928.481445
819.4	2,310.234619
820.2	804.094421
821.4	1,046.790771
822.1	0.181547
822.8	0.107921
823.8	0.000000
824.3	0.000000
825.1	0.000000
826.3	130.691589
827.2	847.606567
828.5	0.351038
829.2	10,655.720703
830.4	1,252.306885
831.1	0.105568
831.6	0.000009
832.5	0.000001
833.5	1,263.046387
834.5	1,633.288208
835.1	35,606.382813
835.8	28,743.423828
836.4	21,254.958984
837.2	5,510.472168
837.8	1,068.306885
838.4	3,051.096436
839.1	1,005.288208
839.7	123.488327
840.8	237.171875
841.5	0.063931
842.3	0.000000
843.0	9.143824
843.8	1,241.044189
844.9	0.028376
845.6	94.739998
846.9	1,240.752930
847.9	1,752.792847
848.6	0.000000
849.4	0.000001
851.2	1,697.464111
852.2	973.906555
853.4	210.130753
854.1	0.000000
855.2	5,067.103027
856.4	12.791571
857.1	383.917816
857.7	0.183459
858.5	0.000000
859.4	385.808868
860.3	0.335103
860.9	0.000000
861.4	0.003836
862.2	0.096337
863.7	0.205018
864.3	403.328735
865.4	0.095078
866.1	1,421.320801
867.1	1,384.432983
867.6	577.939697
868.8	52.483944
870.3	659.748291
871.0	0.013234
871.9	0.215402
872.8	0.060950
873.7	0.004334
874.2	0.081640
875.3	7,702.887207
876.4	2,703.512695
877.3	2,130.643799
878.2	6,229.887207
878.9	0.359553
879.7	594.399963
880.4	0.008667
881.0	51.125484
882.2	4,973.254883
882.7	2.847725
883.2	0.000000
884.4	951.473633
885.3	2,215.640137
886.0	0.000000
887.0	0.012861
888.5	0.000000
889.7	0.033406
891.4	0.124510
892.0	0.652266
892.7	0.103689
893.4	0.023373
894.4	0.033106
895.5	752.943909
896.4	0.000000
897.1	0.000000
898.0	3.941525
898.5	0.000104
899.5	209.259094
900.9	1,586.674316
901.4	0.018518
902.4	184.934891
902.9	169.700806
903.7	492.879333
904.4	107.883064
905.0	452.504089
906.2	172.537048
906.9	2.544317
907.5	55.412464
908.8	0.287465
909.6	0.000000
910.3	0.057297
910.8	0.195853
911.4	0.000000
912.1	0.001726
913.2	3,622.295166
914.2	655.468689
914.7	84.559097
915.4	4.498349
916.4	1,674.574463
917.0	0.000000
917.7	0.137744
918.2	5.481043
919.1	98.130478
920.6	47.891312
921.7	0.000000
922.3	0.000000
923.0	183.305908
924.1	407.808807
924.8	0.000003
925.6	0.000000
926.3	0.000000
927.7	0.000000
928.7	0.013285
929.7	0.020986
930.4	0.007456
931.5	0.000000
932.0	0.000000
934.0	0.000000
934.8	82.426750
935.6	0.423180
936.9	0.000991
937.4	166.078018
938.3	0.147325
939.2	2,781.268311
940.3	353.393341
941.3	0.014788
942.0	0.000001
943.1	0.149458
944.5	0.004263
945.6	0.163034
946.5	0.015697
947.6	0.008015
948.3	0.057595
948.9	0.000000
949.7	0.015697
950.5	0.077735
952.0	0.015237
952.7	742.739197
953.4	0.000000
954.7	0.024809
955.6	0.000000
956.5	1.007193
957.8	65.660706
959.0	0.262962
960.3	0.541657
961.3	484.264526
961.9	0.000000
962.8	0.021405
963.8	0.000923
964.4	48.332363
965.1	0.249727
966.5	2,043.835205
967.4	49.161762
968.4	0.000000
969.2	0.004689
970.0	0.001350
971.0	0.000000
971.7	0.000000
972.7	0.001025
973.3	0.001265
974.3	419.097412
975.1	0.023188
975.9	0.000000
976.5	0.578386
977.1	0.000001
978.3	17.836788
979.1	0.000000
979.8	0.015697
980.4	3.334108
981.7	1.455715
982.8	332.926361
984.2	0.032892
984.8	0.007828
985.4	0.000001
986.1	0.000000
986.7	0.001213
987.9	0.000000
988.8	0.000000
990.0	0.003441
990.8	0.000000
991.5	0.000000
992.5	0.000000
993.3	0.000000
994.2	0.000001
995.5	0.000000
996.1	0.024840
996.7	0.000000
997.7	0.001128
998.8	0.019978
1,001.3	265.660492
1,002.2	158.228012
1,002.8	326.096069
1,004.2	0.547962
1,004.7	0.000000
1,006.3	0.000000
1,007.3	0.000000
1,007.9	0.000000
1,008.4	0.000000
1,009.4	0.001025
1,010.1	0.001162
1,010.9	0.000000
1,011.5	0.000001
1,012.3	0.000000
1,013.3	0.000000
1,014.0	0.023189
1,014.7	0.000000
1,015.6	0.000000
1,016.5	0.000000
1,017.7	158.430801
1,018.4	0.000001
1,019.9	0.000000
1,020.7	0.000000
1,021.3	0.000000
1,022.4	11.178611
1,023.9	0.000000
1,024.4	0.000000
1,025.9	0.000001
1,027.0	0.000000
1,027.8	0.000000
1,028.6	0.000000
1,029.5	0.000000
1,030.2	0.000000
1,031.6	0.012861
1,032.6	0.000000
1,034.0	0.024840
1,035.4	0.000000
1,036.4	0.818953
1,037.2	0.000000
1,037.9	0.000001
1,039.0	0.000001
1,039.5	0.000000
1,040.4	0.000000
1,041.3	0.000001
1,041.9	0.000000
1,042.8	0.000000
1,043.3	0.000000
1,043.9	0.000000
1,045.0	0.000000
1,047.3	137.150436
1,048.1	0.000001
1,048.7	0.000000
1,049.2	0.012861
1,049.7	125.984512
1,051.8	0.000001
1,052.9	0.000000
1,053.8	0.000000
1,054.8	0.133780
1,055.3	0.000000
1,056.1	0.000000
1,056.9	0.000000
1,057.8	0.000000
1,058.6	0.000000
1,059.9	0.094181
1,060.5	0.000000
1,061.3	249.501541
1,062.4	0.005170
1,063.6	0.000000
1,064.2	0.000000
1,064.7	0.000000
1,065.6	0.004050
1,066.3	0.000001
1,067.4	0.000000
1,068.3	796.480713
1,069.8	0.000000
1,070.8	0.000001
1,071.6	0.000000
1,073.0	0.000000
1,074.3	0.001265
1,075.1	0.000000
1,075.6	0.000003
1,076.6	0.040074
1,077.2	0.000000
1,078.0	0.000001
1,078.9	0.000001
1,079.9	0.000000
1,080.6	0.000000
1,081.8	331.331726
1,082.6	1,975.228394
1,083.5	0.000001
1,084.5	134.121780
1,085.1	0.000000
1,085.9	0.000000
1,087.5	0.000000
1,088.7	0.000000
1,090.1	0.000001
1,091.1	14.065330
1,091.7	0.008390
1,092.5	0.000000
1,093.8	0.000000
1,094.3	0.026042
1,094.9	0.000000
1,097.7	0.000000
1,098.4	153.767548
1,099.3	0.000000
1,100.5	0.000000
1,101.7	0.000000
1,102.4	0.000000
1,103.5	0.000000
1,104.1	0.000000
1,104.6	0.012861
1,105.3	0.000000
1,106.5	77.478622
1,107.5	0.000000
1,108.3	0.014983
1,109.2	56.204693
1,109.7	0.000000
1,110.4	0.000000
1,111.4	0.000003
1,112.1	0.001265
1,112.7	0.000000
1,113.2	0.000000
1,113.9	0.000000
1,114.6	0.000000
1,115.7	0.000000
1,116.5	0.000001
1,117.3	0.000000
1,118.0	0.000000
1,119.1	0.000000
1,120.9	0.001145
1,121.7	0.000001
1,123.0	0.000684
1,123.8	0.001145
1,124.5	0.000000
1,125.6	0.001025
1,126.2	0.000000
1,126.9	219.319138
1,127.4	0.000000
1,128.0	0.001026
1,128.7	0.000000
1,129.3	0.000000
1,131.1	0.000001
1,132.3	0.000000
1,132.9	0.000002
1,133.6	0.000002
1,134.9	0.102704
1,135.9	0.000000
1,136.8	14.698553
1,137.5	0.000000
1,138.1	0.016762
1,139.0	0.000000
1,140.6	0.000000
1,141.8	0.000000
1,142.5	0.000000
1,143.3	38.744221
1,144.0	0.000000
1,145.1	0.008062
1,146.8	0.000001
1,147.4	0.000001
1,148.0	0.000000
1,148.5	191.586609
1,149.1	0.000000
1,150.0	0.000000
1,150.8	0.000000
1,151.6	0.000000
1,153.2	0.000000
1,153.9	0.000000
1,154.6	0.000000
1,155.9	96.965225
1,156.7	0.000000
1,159.0	0.024840
1,160.1	90.174080
1,160.6	0.012115
1,161.2	13.056790
1,162.5	0.000000
1,163.0	0.000000
1,164.3	0.000000
1,165.2	0.000000
1,166.8	0.000000
1,167.9	0.000000
1,169.0	0.000000
1,170.0	225.775345
1,171.0	0.029967
1,171.6	0.000000
1,172.1	0.000000
1,173.0	78.008835
1,174.0	65.765030
1,175.0	0.000000
1,175.8	0.000001
1,176.5	0.000000
1,177.1	0.010438
1,179.1	0.000000
1,179.8	0.000000
1,180.4	0.000000
1,181.0	0.000000
1,181.8	0.000000
1,182.7	0.023188
1,183.4	0.000000
1,184.3	0.000000
1,185.3	0.000000
1,186.1	0.000000
1,187.4	0.000000
1,188.2	0.000000
1,189.3	0.000000
1,191.1	0.000000
1,192.3	14.394278
1,192.9	17.602741
1,193.6	0.000000
1,194.6	0.000000
1,195.7	0.000000
1,196.5	0.000000
1,197.0	0.000000
1,198.3	76.869873
1,199.3	274.364685
1,200.0	0.000000
