URL	chrom://pc-3vxg514/ChromeleonLocal/Data/2025/2025_w25.seq/417.smp/ISQEC.xraw
Channel	UV_VIS_2

Injection Information:
Data Vault	ChromeleonLocal
Sequence	2025_w25
Name	CA8393_16jun_iEDDAC_DMSO_DIPEA
Number	51
Position	RE7
Comment	
Processing Method	General_ILK
Instrument Method	5-100pct_positive_3min
Type	Calibration Standard
Status	Finished
Inject Time	6/17/2025 8:13:54 AM +02:00
Volume (µl)	13.0000
Dilution Factor	1.0000
Weight	1.0000

Raw Data Information:
Data Points	1187
Mass Min. (m/z)	100.000000
Mass Max. (m/z)	1,200.092043
Retention Time (min)	1.657152
Mass Resolution	0.500000
Tolerance Unit	Amu
Scan Number	742
Scan Type	+ c ESI sid=20.00 Full ms [100.000-1200.000]
Is Centroid Scan	True
Base Peak Mass	320.059265
Base Peak Intensity	83,553,456.000000
Total Ion Count	133,750,401.110018

Raw Data:
Mass (m/z)	Value (counts)
100.5	3,503.527832
101.4	344.819061
101.9	5,856.773438
102.4	13,686.744141
103.5	1,252.902344
104.4	1,465.121094
105.3	5,577.299805
105.8	86.016991
106.3	682.356262
107.3	0.001617
108.3	1,304.673218
109.6	0.144467
110.1	241.619919
110.7	0.047658
111.3	1,753.394531
112.1	0.000018
112.7	0.081315
113.5	53.813084
114.9	0.397869
116.5	1,733.796387
117.6	9,929.388672
118.2	82,994.945313
119.0	5,473.879883
119.6	175,719.406250
120.3	629,065.625000
121.3	25,589.443359
122.3	31,627.449219
123.2	950.891541
124.3	143.088242
125.5	0.187363
126.3	367.422211
127.5	4,208.667969
129.5	32,216.523438
130.4	294,539.718750
131.4	20,790.201172
132.1	172.071533
133.1	566.465637
134.4	0.322640
135.8	229.557556
136.4	0.137095
137.9	157.916031
139.2	0.207954
140.1	0.000016
141.4	945.273682
142.3	2,090.322510
143.0	0.058422
143.7	1,400.742676
144.4	0.199081
146.0	1,523.520386
146.6	575.989197
148.1	1.049988
148.8	0.432440
149.4	137.857895
150.0	1,420.888306
150.5	266.198395
151.8	19.350214
153.4	1,907.757080
155.2	1,913.437134
157.2	53,992.796875
158.3	779.468628
159.4	6,738.498535
160.1	0.055932
160.8	0.107028
161.4	1,129.349365
162.4	0.172693
163.2	59.466343
163.7	680.355957
164.6	0.010554
165.3	1,318.985596
165.8	1.207810
166.9	0.569965
167.8	0.182782
168.8	1,630.332275
169.5	734.066833
170.1	598.721313
170.8	0.231186
171.8	0.169933
172.6	0.057882
173.3	472.485199
174.4	256.666473
175.2	5,552.883301
175.8	0.210845
177.2	2,254.330322
177.8	928.864624
178.3	1,420.830811
179.4	406.353790
180.2	0.388626
180.9	190.367905
181.6	5.677847
182.6	307.412262
183.3	671.550476
184.3	64.396072
185.8	3,419.000488
186.3	1,075.294067
187.3	0.444114
187.9	0.000033
188.5	0.105459
189.1	0.068984
190.3	0.188600
190.8	16.838364
192.2	757.066101
193.2	0.017419
194.0	12.672901
194.6	389.169495
196.0	1,908.864136
196.6	298.728210
197.6	1,926.799683
198.4	0.223154
199.2	4,640.044434
199.9	0.005521
200.7	0.243151
202.0	2,651.855957
202.9	201.112747
203.8	245.813385
204.3	1,449.602417
205.4	0.000005
206.0	0.000004
206.8	0.000048
208.1	0.206841
208.8	2,177.948975
209.6	98.262863
210.1	586.801880
211.1	1,218.112793
212.2	4,790.810059
212.8	1,787.866821
213.6	0.282269
214.8	122.357231
215.4	0.000000
216.0	0.007307
216.6	1,451.208618
217.2	968.219116
217.7	0.113924
218.7	0.241279
219.8	4,017.629639
220.4	5,131.117188
221.2	744.037231
221.9	1,131.222412
223.8	8,096.800781
224.4	7,098.595215
225.8	0.494184
226.3	771.683594
227.2	0.181887
228.7	347.298065
229.7	234.509781
230.5	2.337084
232.0	1,235.715576
232.7	0.041141
233.5	824.770508
234.3	1,704.415894
235.1	3,642.774902
236.1	1.212867
236.9	3,213.149170
238.5	1,108.341309
239.6	462.321899
240.6	1,934.549683
241.2	871.883423
242.1	923.562561
243.5	1.383243
244.1	1,968.695313
244.9	0.086721
245.7	3,712.420410
246.5	3,665.479736
247.4	0.077856
248.5	1,405.815674
249.7	1.674531
250.3	202.305969
251.5	0.052988
252.2	381.222351
253.4	4.066109
254.2	11.980663
254.9	0.061854
256.3	1,187.382202
257.1	8,750.651367
257.6	62.836823
258.2	125.057755
258.9	67.223457
259.6	0.108504
260.8	2,878.779785
261.4	1,981.459839
262.2	798.526001
262.8	1,315.953369
263.5	441.554108
264.5	2,740.258057
265.3	1,708.123291
266.3	0.868226
267.1	2,065.656982
267.9	0.528223
268.9	5,671.667969
269.6	4,715.977539
270.3	6,028.031738
271.2	3,441.348877
272.3	0.159246
273.1	0.115287
273.7	979.223816
274.2	2,307.036621
275.2	119,903.492188
276.1	34,303.281250
277.1	14,483.475586
278.1	2,054.118164
279.0	14,513.794922
279.7	0.298211
280.7	4.217025
282.0	2,231.442383
282.7	1,185.330566
283.4	892.135925
284.8	5,941.258789
286.0	827.501221
287.3	1,141.808838
288.1	5,734.801758
289.1	25,461.341797
290.2	1,445.905762
290.7	247.389221
291.4	8,435.164063
292.8	141.414886
293.4	1,326.912109
294.3	236.735245
295.6	644.900330
296.4	9.510845
297.2	1,499.683350
298.1	65,757.921875
298.8	4,753.727539
299.9	148,686.593750
300.5	86,721.890625
301.3	26,850.599609
302.0	5,896.660156
302.8	2,769.691650
303.6	2,427.853516
304.2	17,312.511719
305.1	7,219.310059
306.1	90,152.984375
306.8	4,245.108887
307.6	3,783.616211
308.1	1,441.373291
309.0	1,750.292847
309.9	0.405498
310.5	0.012471
311.2	0.726564
312.2	3,238.270020
313.2	3,203.651611
313.8	0.028539
314.4	3,596.560547
315.1	3,731.833252
316.0	26,107.384766
316.8	21,380.285156
318.1	22,233,220.000000
320.1	83,553,456.000000
321.2	14,810,068.000000
322.3	1,733,112.750000
323.2	244,421.640625
324.3	21,722.408203
325.1	519.714539
325.9	4,916.165527
326.8	15,609.845703
327.5	11,433.097656
328.9	10,113.733398
329.9	4,138.339844
331.0	3,797.899170
332.4	9,216.046875
333.1	738.096313
333.7	97,799.656250
334.3	82,628.289063
335.0	23,120.751953
335.8	53,113.777344
336.5	43,929.917969
337.9	129,395.054688
338.5	47,525.597656
339.2	41,592.074219
340.1	11,622.861328
341.1	30,779.142578
341.7	5,398.951172
342.4	2,100.336426
343.6	7,194.047852
344.3	5,819.746094
345.3	3,830.344971
346.5	6,752.969727
347.2	2,647.688721
348.0	12,981.415039
348.9	11,034.009766
349.7	23,847.076172
350.2	16,396.595703
351.1	23,766.628906
351.8	391,446.062500
352.3	728,688.000000
353.1	223,185.875000
354.2	50,439.113281
355.1	30,411.613281
356.2	12,249.763672
356.9	18,230.089844
358.1	1,040.530518
358.6	783.902710
359.3	8,242.329102
360.6	140,651.750000
361.3	546,268.062500
362.3	171,856.703125
363.4	35,849.644531
364.3	16,471.292969
364.9	3,659.125977
366.0	43,101.011719
367.6	77,968.843750
368.2	76,416.187500
369.2	33,182.046875
370.0	23,816.884766
370.5	14,283.070313
371.3	6,069.287598
372.4	58.089794
373.2	133.406418
374.2	3,855.423096
375.1	1,319.800781
375.9	8,588.458008
376.7	351.678314
377.9	63,250.175781
378.8	29,839.246094
380.0	298,030.468750
381.1	73,684.367188
381.9	6,228.273926
383.0	21,746.076172
383.7	56,151.597656
384.3	112,859.257813
385.1	49,443.253906
385.8	23,206.449219
386.4	10,600.949219
387.1	7,461.162109
388.1	9,866.455078
388.6	4,956.372070
390.2	13,711.757813
391.3	29,648.267578
392.2	15,910.688477
393.2	49,443.468750
394.1	36,158.203125
395.2	16,438.998047
396.2	43,837.953125
396.8	2,048.093018
397.6	93,797.367188
398.3	144,420.187500
399.1	61,703.687500
400.1	62,949.621094
401.0	14,640.815430
402.0	9,096.975586
402.8	6,934.918457
404.2	12,577.562500
405.4	30,008.630859
406.2	45,746.730469
406.9	21,324.736328
407.4	14,231.414063
408.0	4,664.481934
408.7	14,894.800781
409.8	6,176.131836
410.5	5,666.532227
411.2	16,225.310547
412.0	32,141.087891
413.0	26,770.078125
413.8	69,073.304688
414.3	77,535.148438
415.1	39,205.574219
416.0	12,513.657227
416.9	9,472.619141
418.1	73,320.632813
419.2	18,759.761719
419.7	1,139.030640
420.4	12,880.058594
421.3	17,426.792969
422.2	15,241.671875
423.0	48,629.003906
423.7	31,386.949219
424.5	13,164.763672
425.6	17,506.664063
426.2	46,180.968750
427.1	17,535.509766
427.9	14,112.464844
428.9	6,059.945313
429.7	4,650.604492
430.3	11,992.092773
431.3	10,013.522461
432.1	6,056.541504
432.9	4,824.221191
434.0	12,517.029297
434.8	12,914.898438
435.5	1,356.776733
436.2	2,100.328857
436.7	4,015.387939
437.5	2,238.707520
438.6	9,306.374023
439.2	19,376.244141
440.2	2,395.691406
441.1	6,150.599609
441.9	7,353.151367
442.5	4,051.648438
443.1	12,137.843750
443.9	35,254.761719
444.5	4,939.131348
445.1	42,034.031250
446.0	28,702.367188
447.0	12,456.784180
447.9	6,252.102539
448.6	3,666.216309
449.3	2,143.265869
450.1	3,500.249512
451.1	1,382.484131
451.6	2,328.750488
452.7	7,436.676758
453.3	649.303833
454.1	5,116.176758
454.9	6,708.363281
455.8	1,008.530151
456.7	3,601.422607
457.3	1,854.409546
458.1	6,119.380859
459.1	28,934.107422
460.5	13,932.324219
461.2	2,000.521240
462.1	28,113.203125
462.9	10,426.835938
463.7	1,088.875610
464.2	1,237.118164
464.9	2,346.597900
465.8	6,108.520020
466.4	1,309.783447
467.1	11,443.869141
468.0	11,883.872070
469.1	2,702.961914
469.8	13,634.080078
470.7	8,457.180664
471.2	4,804.102051
472.1	15,787.060547
473.1	46,866.167969
474.3	10,441.993164
475.3	14,622.149414
476.0	610.252563
477.1	5,340.416992
477.8	8,861.951172
478.7	4,778.511230
479.5	4,131.620117
480.2	3,723.812500
481.2	12,670.673828
482.2	4,954.566406
483.0	2,619.612305
484.0	11,135.554688
484.6	4,107.582031
485.3	11,111.327148
486.1	5,105.263672
487.4	17,815.814453
488.2	12,698.348633
489.3	3,499.532471
490.0	7,817.758301
491.0	322.683899
492.1	27,240.041016
492.7	2,357.317627
493.2	5,267.042969
494.2	6,943.436035
495.0	1,096.839722
495.9	2,153.437256
496.8	7,337.284180
497.5	2,722.114990
498.2	2,448.189453
499.0	9,087.769531
500.4	6,272.526855
501.2	3,528.350586
501.9	573.302429
502.9	12,476.147461
504.1	6,192.371094
504.7	207.867828
505.5	1,257.181519
506.1	18,927.701172
506.8	4,262.800293
507.5	6,868.745605
508.1	1,254.957886
508.9	2,372.100586
510.3	5,991.317383
510.9	4,538.114746
511.5	5,159.360352
512.3	15,016.188477
514.0	6,600.536133
515.0	7,139.775391
516.2	1,455.579834
516.8	1,782.612915
517.6	174.909897
518.2	468.953735
519.2	713.069641
520.1	6,360.330566
520.8	365.800629
521.6	2,742.487305
522.1	6,617.705566
523.1	1,888.600220
523.7	5,327.914551
524.5	2,441.007813
525.3	6,653.588379
526.4	5,005.951172
527.3	712.781006
528.0	16.406803
528.7	876.152893
529.7	3,090.561768
530.8	1,589.740723
531.6	3,131.663818
532.9	1,178.611572
534.0	5,392.039551
535.3	15,018.084961
536.9	5,139.619629
537.5	3,286.306641
538.2	987.067627
538.8	4,625.116211
540.0	7,278.166016
541.1	1,022.925171
541.8	1,639.856201
542.7	120.916290
543.4	118.329796
544.4	5,711.454102
545.0	725.599121
545.8	2,754.450684
546.8	6,402.838867
548.0	1,879.326416
549.1	2,865.575684
550.4	1,879.234619
550.9	7,890.345703
551.6	1,419.428955
552.2	4,685.655273
552.8	2,625.835449
553.6	16.533339
554.6	398.239960
555.5	866.874390
556.4	310.412048
556.9	2,796.688721
557.5	5,735.065430
558.4	2,488.244385
559.2	1,266.078491
559.9	993.793396
560.9	4,171.310059
561.6	210.854691
562.3	5,999.249512
563.2	1,402.987427
564.0	2,104.020752
564.9	5,779.562988
565.6	732.080444
566.1	2,075.567627
566.9	16.976992
567.7	1,403.289063
568.7	4,763.028320
569.4	164.811127
570.7	3,073.955811
571.4	2,739.146240
571.9	1,636.326050
572.4	2,374.950928
573.1	2,750.778076
574.0	3,955.251221
575.1	3,601.348877
576.0	990.065613
576.8	115.745438
577.5	3,515.193115
578.6	4,223.325195
579.3	4,137.108398
580.0	2,361.478760
581.0	5,291.795410
581.6	1.570839
583.4	29.106039
584.2	2,764.606201
585.0	5,084.966797
585.9	746.854126
586.7	27,571.851563
587.5	29,010.490234
588.2	11,651.710938
588.9	163.446487
589.9	1,214.617188
591.1	2,217.129395
592.6	2,354.181152
593.9	0.804816
595.0	113.811340
595.8	0.587054
596.5	1,723.009888
597.2	2,553.567627
597.8	4,354.522461
599.2	8,395.715820
600.6	2,213.114990
601.4	0.429487
602.2	4,649.863281
603.1	3,056.225586
604.0	5,503.520508
604.8	1,854.725708
605.6	2,688.975342
607.0	5,766.470215
608.0	903.780334
608.6	6,615.181641
609.6	2,927.199707
610.3	2,607.114258
611.3	5,175.468262
612.2	8,471.422852
612.8	1,019.944153
614.0	3,251.667236
614.7	1,122.167236
616.2	2,377.035645
617.2	56,525.222656
618.2	22,915.888672
619.0	8,736.427734
619.9	1,513.861694
621.1	11,980.652344
622.5	1,897.953125
623.1	1,633.577759
624.0	0.236381
625.2	3,965.147461
626.6	1,310.521973
627.6	694.799072
629.8	10,921.318359
631.0	3,077.879150
632.2	11,982.028320
633.1	10,976.956055
634.1	7,763.741699
635.1	762,541.375000
636.2	346,946.281250
637.2	87,205.710938
638.0	27,830.353516
638.7	6,703.427246
639.8	3,360.619385
640.4	0.507362
641.8	4,495.297852
643.1	2,484.482666
644.0	1,082.464600
644.7	2,172.171631
645.4	3,769.793213
645.9	891.601379
647.6	915.461182
649.2	1,880.050537
650.0	0.597530
651.1	832.210693
653.0	10,026.717773
654.3	5,419.254883
655.1	12,392.493164
655.9	7,336.500488
656.4	2,736.683350
657.1	574.492188
657.7	2,087.630127
658.5	446.357605
659.7	1,532.423706
661.0	3,975.045410
662.0	1,625.857544
663.0	6,414.529297
663.9	7,606.003906
664.8	34.359241
665.3	2,965.037109
667.1	12,769.189453
668.0	7,979.511230
669.0	5,209.305664
669.7	4,733.620605
671.1	46,380.070313
672.0	28,571.824219
672.8	6,744.999023
673.7	1,016.797363
674.4	503.693573
674.9	443.233063
675.9	82.971352
676.5	1,536.239624
677.5	0.584213
678.1	0.000170
679.2	0.473337
679.7	0.224172
680.3	7,702.477539
680.9	2,063.545898
681.4	600.582886
682.4	4,212.207031
683.2	12,821.590820
684.1	3,371.923584
685.0	19,373.070313
685.8	8,527.168945
686.7	9,508.771484
687.3	6,024.150391
688.1	11,501.577148
688.9	2,728.188232
689.7	1,483.381836
690.5	1,086.465088
691.6	2,903.469482
692.3	1,371.399170
692.9	1,810.155151
693.8	203.193008
694.3	381.240906
694.9	3,101.146240
695.6	10.046819
696.5	0.399128
697.0	1,036.522705
697.6	346.069244
698.3	930.599915
699.1	1,997.344238
700.0	1,600.533569
701.0	15,326.285156
701.7	1,097.362549
702.2	7,894.152344
703.2	16,862.138672
704.5	4,579.920898
705.2	6,495.119141
706.2	2,749.516846
707.2	3,245.429443
707.7	5,885.727051
709.4	3,201.026367
711.2	1,286.975830
712.1	0.251396
712.9	213.073059
713.6	1,186.497681
714.3	1,289.030640
714.8	2,001.578247
716.0	995.364685
717.0	10,310.761719
717.6	2,442.776611
718.1	11,818.022461
719.0	3,959.915039
720.0	11,551.720703
720.6	3,842.063721
721.5	9,753.733398
722.2	822.048035
722.8	964.144958
723.4	1,264.357666
724.3	1,076.241699
725.2	6,917.004395
726.1	0.068585
727.0	5.104088
728.4	4,472.726074
729.7	1,697.445068
731.0	3,466.673584
731.8	1,164.025635
732.3	1,601.426880
733.1	3,201.176025
734.0	2,563.083984
734.8	3,680.841064
735.4	1,317.288452
736.2	7,119.078125
737.1	3,714.012451
738.3	1,323.104614
739.0	1,809.468262
739.7	340.312988
740.5	3,423.391846
742.2	4,143.733398
743.0	6,119.764160
744.4	1,453.425049
745.1	4,342.269043
746.2	0.418729
747.2	1,007.905640
748.5	949.543274
749.1	4,330.688477
751.0	3,025.886719
752.6	4,176.383789
753.5	3,506.992188
754.3	2,178.742920
755.4	669.018738
756.4	2,473.615479
757.2	7,531.097656
757.7	705.407410
758.6	3,393.557373
759.3	2,463.132813
761.4	514.120728
762.8	1,253.531860
763.3	1,095.583984
764.3	2,422.148682
765.1	3,797.629639
767.4	1,782.895508
768.1	0.331916
768.6	350.927704
769.6	0.495821
770.4	2,835.150635
771.0	0.221167
771.5	18.681858
773.5	698.189209
774.4	1,012.530518
775.5	69.740448
776.3	284.003540
777.0	481.193848
778.2	3,502.010254
778.8	0.764459
779.7	383.317627
780.4	0.042239
780.9	1,123.330688
781.6	0.000024
783.0	4,170.800293
784.1	709.070740
785.0	0.173230
785.6	450.194916
786.3	0.064374
786.9	2,370.120361
788.0	1,244.437012
789.2	558.270325
790.2	207.254333
790.7	0.290428
791.3	0.194817
792.2	4.554847
793.1	2,684.655273
793.9	157.091812
794.5	623.558167
795.6	471.336334
796.4	0.185687
798.3	1,275.363037
799.1	1,259.676025
799.7	0.000000
801.0	699.971924
801.6	439.181702
802.3	0.054613
803.2	0.025914
804.2	2.939333
804.8	124.141533
805.4	213.377701
806.2	384.623810
806.8	430.814850
807.3	166.251892
808.2	0.203130
809.1	33.679737
810.4	6,238.980957
811.0	413.965332
812.0	1,047.406860
813.1	0.000000
813.9	0.055891
814.8	1,962.521729
815.5	0.150871
816.1	16.595287
817.1	0.056783
818.1	0.004330
819.0	1.017167
819.9	0.006066
820.5	0.332289
821.2	184.942810
822.7	0.720381
823.4	0.000015
824.0	265.588684
825.1	0.000000
826.1	2,370.034668
826.9	0.251532
827.9	105.473015
828.8	0.054690
829.7	0.345315
830.5	0.142634
831.0	0.085824
831.8	4,633.285645
832.8	554.236938
833.3	0.062470
834.5	770.238281
836.0	345.358917
836.7	0.032060
837.6	176.444687
838.3	89.952232
839.0	199.180267
840.0	0.000001
840.7	0.010204
841.6	0.000049
842.9	0.595631
843.7	0.000000
844.8	1,204.747803
845.3	0.118470
846.4	241.320374
847.1	85.693405
847.6	0.059909
848.6	1,912.578003
849.5	0.013244
850.6	0.144109
851.7	0.335351
852.5	0.409462
853.6	0.505939
854.4	10.319831
855.4	0.000000
856.2	0.068068
857.4	0.071047
858.0	0.004112
859.1	408.497589
860.4	0.000001
861.2	28.248846
862.0	1,219.656494
862.7	0.000050
863.6	3,023.862305
864.7	0.000000
866.0	144.146744
867.3	0.000020
868.2	0.000002
868.8	0.011561
869.6	0.000003
870.1	0.000003
870.7	0.000000
871.8	0.052364
873.3	0.844109
874.0	0.000033
875.4	13.814653
876.4	2,379.629150
877.3	0.000038
878.1	0.000000
878.9	0.000000
879.6	0.000000
880.3	1,626.062988
881.7	186.919922
882.4	17.067242
883.0	0.000067
884.4	0.000000
885.2	0.065346
886.2	0.000006
887.1	0.000000
887.7	0.032339
888.6	0.000027
889.6	0.000000
890.3	0.000000
891.0	0.000000
892.2	0.589831
893.7	0.016030
894.9	0.010164
895.4	0.116069
896.5	0.034119
897.2	0.000000
898.1	0.086650
899.0	0.000064
900.0	0.014823
900.7	0.003439
901.9	13.300920
903.3	0.000000
904.0	0.009173
904.8	0.000000
905.6	0.000003
906.1	0.000000
906.8	0.000000
907.9	106.178230
908.7	0.000000
909.9	7.025057
910.8	0.000000
912.3	0.000000
913.2	0.000000
914.5	643.232605
915.3	0.050069
916.5	0.000000
917.3	0.000035
917.9	0.000673
919.5	0.000000
920.4	0.000017
921.0	0.000000
921.8	1,527.099976
923.0	3,164.221924
924.4	1,590.285767
925.0	0.296106
926.1	0.006974
926.8	0.000000
927.4	123.860275
928.6	0.000025
929.4	0.000000
930.0	0.000000
930.7	321.048370
932.0	0.000000
932.9	144.212006
933.4	0.000000
934.6	17.247852
935.6	1,357.050171
936.5	0.043171
937.6	0.022015
938.9	0.571685
940.1	0.012124
941.2	0.008015
941.9	0.351909
942.6	0.000069
943.9	52.903133
944.7	0.008522
945.9	0.026767
946.6	0.002223
947.5	0.011581
948.7	0.195294
949.6	0.000000
950.2	745.664246
952.6	1,591.027100
953.2	0.016590
954.2	372.161133
955.2	0.000000
957.7	414.625854
958.6	5.853662
959.3	0.000000
959.9	0.000000
960.8	0.000000
961.8	0.012488
962.6	0.000000
963.3	0.093824
964.1	0.000000
965.3	0.000000
966.5	0.000000
968.4	1,160.863037
969.2	0.024392
970.8	0.007090
971.6	0.000000
972.2	0.011184
973.0	0.113543
973.6	0.000000
974.7	0.014938
975.4	0.000009
976.3	0.000000
977.6	0.015700
978.8	0.003059
980.3	8.821105
980.9	0.002717
981.9	0.000000
982.5	0.000000
983.4	297.992889
984.5	1,929.566162
985.8	0.000000
987.0	5.549633
988.0	316.321960
988.6	0.000009
989.1	0.011929
990.1	9.365359
991.0	0.000000
993.3	0.000000
994.1	0.000000
995.5	0.004155
997.3	0.000000
997.9	0.000000
999.0	233.021652
999.6	0.027363
1,000.6	0.771029
1,001.2	0.000000
1,002.1	0.000000
1,003.2	0.000000
1,004.3	0.116633
1,005.0	0.000000
1,006.3	0.000001
1,007.1	73.855560
1,008.0	0.000000
1,009.4	0.000000
1,010.5	0.000000
1,011.0	0.000000
1,013.3	0.000000
1,014.7	0.000000
1,015.7	0.000000
1,016.3	0.000011
1,016.9	0.000000
1,018.6	1,334.881470
1,019.4	0.000000
1,020.2	0.000000
1,021.5	0.000000
1,023.3	0.000078
1,024.7	0.000000
1,026.0	0.000000
1,026.6	154.781235
1,027.2	0.021907
1,027.7	0.000000
1,029.6	3,303.518066
1,030.4	0.014608
1,031.2	0.000000
1,032.5	0.000000
1,033.1	0.000000
1,033.8	0.000000
1,034.5	0.000000
1,035.0	92.797455
1,035.6	0.000008
1,037.6	0.000000
1,038.7	0.037752
1,040.2	12.884736
1,041.4	0.164540
1,043.0	0.007783
1,045.4	0.002998
1,046.8	0.001179
1,047.4	0.000803
1,048.1	0.000000
1,049.8	349.699432
1,050.6	0.000000
1,051.6	0.000000
1,052.6	0.000000
1,053.8	0.000000
1,055.8	0.000000
1,056.7	124.918907
1,057.5	87.408905
1,058.1	0.000000
1,059.3	0.000000
1,061.2	0.000000
1,062.9	0.000000
1,063.8	0.000001
1,065.1	0.016684
1,065.9	0.028695
1,066.5	0.000000
1,067.1	0.000000
1,069.7	0.012488
1,070.6	0.000000
1,071.2	0.024259
1,071.9	0.000000
1,073.0	0.000000
1,073.7	2,069.079102
1,074.6	0.000000
1,075.2	0.379869
1,076.4	0.000000
1,077.2	0.000000
1,077.9	0.000000
1,078.5	0.000000
1,079.1	0.023188
1,080.2	0.000000
1,081.2	0.000000
1,082.1	0.495088
1,083.0	0.000000
1,084.4	0.000000
1,085.0	16.711447
1,086.7	0.000000
1,087.6	0.000000
1,088.6	0.000000
1,089.2	0.000000
1,090.1	0.000000
1,091.1	0.032549
1,091.7	0.000000
1,092.7	0.000000
1,093.9	0.000000
1,094.5	0.000000
1,095.4	0.000000
1,097.6	0.000000
1,098.4	0.000000
1,099.7	0.014990
1,100.8	0.000000
1,101.5	0.000000
1,102.1	0.000000
1,102.9	0.000283
1,103.4	0.000140
1,105.0	0.000000
1,107.2	0.000004
1,108.5	0.000000
1,109.1	0.000000
1,111.5	0.015274
1,112.1	0.021313
1,112.8	0.000000
1,113.4	0.000000
1,115.0	0.000000
1,115.9	0.008388
1,117.1	0.000000
1,119.3	0.000001
1,120.3	0.000000
1,121.4	0.000000
1,123.3	0.000000
1,124.3	0.000000
1,125.3	0.000000
1,126.5	24.261568
1,127.2	0.000000
1,128.2	185.146652
1,128.9	131.497528
1,129.7	0.000003
1,130.3	0.000000
1,130.9	250.262405
1,131.6	0.000000
1,132.9	85.563446
1,133.5	0.000000
1,134.6	0.000000
1,135.4	0.000000
1,136.4	105.920708
1,137.6	0.000000
1,138.2	0.000000
1,138.9	0.000000
1,139.8	0.000000
1,140.5	0.000000
1,141.2	0.016767
1,141.7	0.001795
1,143.6	604.100525
1,145.2	0.032397
1,146.8	0.000000
1,147.3	0.000000
1,148.7	0.000000
1,149.9	0.000000
1,150.4	0.000000
1,152.2	0.000000
1,153.0	0.000000
1,153.5	0.000000
1,154.7	254.115143
1,155.7	0.000000
1,156.8	0.000000
1,158.3	0.000000
1,159.7	0.000000
1,160.8	0.000000
1,162.4	164.841080
1,163.4	0.034481
1,164.4	0.016767
1,165.0	0.000000
1,166.8	302.107300
1,167.7	0.000000
1,168.6	0.000000
1,169.3	0.000000
1,170.2	0.009692
1,172.4	0.000000
1,173.0	0.000000
1,173.7	82.473381
1,174.6	0.000000
1,175.3	232.956238
1,176.5	0.000000
1,177.4	0.000000
1,178.7	0.000000
1,179.4	0.000000
1,180.8	0.000000
1,182.6	0.000001
1,184.0	0.006964
1,184.6	0.000000
1,185.3	0.000000
1,186.9	1.176263
1,187.6	0.000000
1,188.5	0.006889
1,189.5	0.000000
1,190.9	0.000000
1,192.2	0.000000
1,193.5	0.016151
1,194.2	0.000000
1,195.3	0.000000
1,197.2	0.000000
1,198.0	0.004973
1,198.7	0.000000
1,199.2	0.000000
