URL	chrom://pc-3vxg514/ChromeleonLocal/Data/2025/2025_w23.seq/970.smp/ISQEC.xraw
Channel	UV_VIS_2

Injection Information:
Data Vault	ChromeleonLocal
Sequence	2025_w23
Name	CA8393_2jun_iEDDAC_alkyne
Number	40
Position	RA1
Comment	
Processing Method	General_ILK
Instrument Method	5-100pct_positive_3min
Type	Calibration Standard
Status	Finished
Inject Time	6/2/2025 3:06:14 PM +02:00
Volume (µl)	18.0000
Dilution Factor	1.0000
Weight	1.0000

Raw Data Information:
Data Points	1183
Mass Min. (m/z)	100.000000
Mass Max. (m/z)	1,200.092420
Retention Time (min)	1.732713
Mass Resolution	0.500000
Tolerance Unit	Amu
Scan Number	776
Scan Type	+ c ESI sid=20.00 Full ms [100.000-1200.000]
Is Centroid Scan	True
Base Peak Mass	320.214508
Base Peak Intensity	88,910,616.000000
Total Ion Count	126,614,125.775881

Raw Data:
Mass (m/z)	Value (counts)
100.3	6,028.937500
101.4	94,545.906250
102.5	6,918.764648
103.6	46.604359
104.6	1,297.755249
105.3	4,021.770752
106.2	126.288544
106.8	0.000036
107.6	349.828766
108.2	0.000012
110.0	3,079.395752
110.6	0.007209
111.3	3.807466
111.9	0.000024
112.5	0.000000
113.8	0.000035
114.5	0.123608
115.3	87.480965
116.0	0.000005
116.5	474.011139
117.6	3,525.162109
118.3	10,407.233398
119.0	0.829995
119.5	741.848145
120.7	0.048013
121.4	0.396027
122.2	0.059169
123.1	17.580463
123.7	1,814.031494
124.5	0.010664
125.4	0.046145
126.3	0.000000
127.0	0.000001
127.7	0.413326
128.4	0.321548
129.3	322.923309
130.2	2,201.217285
130.9	0.517514
131.4	1,065.403198
132.3	8,654.573242
133.4	4,130.817871
134.3	0.000005
135.0	0.197389
135.7	241.752136
137.1	0.198699
137.6	0.000000
138.3	0.000000
139.6	0.001186
140.3	0.575147
140.9	406.614655
142.5	0.006317
143.5	0.127441
145.0	110.901245
145.7	0.000000
146.2	1,512.400513
147.7	478.412079
148.4	26.994144
149.0	106.464447
150.7	0.000004
151.3	0.142857
152.3	0.003817
152.9	176.164902
153.4	814.635376
154.4	260.090485
155.2	0.001577
156.1	0.221681
157.6	230.652283
158.2	0.023763
158.7	0.000011
159.4	0.000000
160.4	973.496277
161.0	0.170753
161.6	0.003772
162.1	5.433942
163.4	0.236852
164.0	0.000000
164.5	0.003896
165.7	0.000028
166.9	1,689.172974
167.6	0.086905
168.2	0.000022
169.2	0.004734
169.9	239.778671
170.7	0.011553
172.2	0.508482
172.7	0.006141
173.4	762.471619
174.1	2,053.947754
175.0	597.387329
176.1	128.202698
177.5	443.227356
178.1	0.382930
178.9	340.569489
179.5	0.008268
180.2	0.000000
181.1	0.211470
182.5	223.379654
183.3	262.914490
183.9	0.000036
184.5	0.000598
185.4	249.024551
186.4	0.907657
187.5	418.233582
189.0	0.135913
189.5	104.161179
191.0	1,534.911377
191.7	1,210.445923
193.3	0.100645
194.3	4,766.724121
195.1	0.092537
196.6	967.135132
197.3	1,845.355957
198.5	294.486450
199.0	0.137545
199.7	0.081387
200.6	0.039874
201.7	76.636383
202.6	1,076.755981
203.5	0.000006
204.7	0.013803
205.5	1,865.868408
206.3	457.360687
207.2	0.000000
208.3	37.083076
209.4	0.137410
210.1	8.008902
211.2	363.716644
211.9	1,247.427124
212.6	0.000009
213.5	0.198949
214.3	0.049883
215.3	0.000017
216.2	431.468994
217.7	1.724128
218.4	0.110036
219.2	0.000000
220.0	0.000002
221.0	256.812408
221.7	562.977356
222.3	1,840.831299
223.1	0.243877
224.3	8,095.969727
224.8	2,051.078857
225.8	0.023648
226.4	0.000042
226.9	0.093351
227.5	0.000002
228.0	0.005682
229.0	0.000023
229.5	79.080215
230.0	0.113365
230.7	0.004264
231.7	0.002696
232.7	0.077895
234.0	0.035616
235.2	474.431671
235.8	4,411.189453
236.6	0.120846
237.4	0.024977
238.1	1,172.227051
238.8	0.000000
239.5	0.000001
240.3	0.326347
241.1	226.845413
241.9	293.393768
242.4	0.061302
243.0	0.043444
243.9	0.019812
244.5	1,500.940430
245.6	74.486946
246.3	8,671.569336
246.9	0.276420
247.9	0.386346
249.0	0.042439
249.9	3.318408
251.5	0.169365
252.3	1,074.261719
253.2	555.797607
254.3	5.467456
255.0	0.085852
255.9	1,887.506714
256.7	0.020189
257.3	128.188110
258.5	2.191843
259.6	0.842131
261.0	1.439355
261.6	0.171627
262.2	0.728856
263.3	2,499.835938
264.0	298.782257
264.7	0.226772
265.4	0.373530
266.1	0.000004
266.6	0.000005
267.2	3.270001
268.4	0.000000
269.1	0.000004
270.1	849.003967
271.4	1,460.868652
273.0	913.164551
273.6	1,134.101929
275.2	2,611.682861
276.5	3,956.993896
277.4	879.008606
278.6	0.053673
279.4	2,168.765625
280.1	1,263.267090
280.8	94.984337
281.4	1,174.083862
282.0	0.090612
283.1	0.096786
283.7	0.022166
284.8	879.464539
285.3	489.579529
286.5	2,607.881592
287.9	361.491730
288.6	713.961670
289.2	2,150.755127
290.6	4,072.033936
291.4	5,659.416992
292.5	0.010611
293.9	637.244873
294.6	35.289074
295.9	0.004899
296.4	1,003.035034
297.2	488.412964
298.4	3,036.246094
299.6	2,940.220215
300.3	4,279.515137
301.2	298.556335
302.8	2,167.111572
303.6	2,758.955078
304.2	16,023.269531
305.3	383.603333
306.3	26,600.287109
307.5	5,297.186035
308.1	1.358367
308.8	342.786682
309.5	552.382874
310.3	0.001587
311.9	1,019.578857
312.7	0.000073
313.5	856.506104
314.7	2,275.681641
315.3	3,571.383545
316.1	1,067.562378
316.7	260.565826
318.1	960,278.937500
320.2	88,910,616.000000
321.4	12,780,736.000000
322.3	2,953,110.000000
323.3	577,603.062500
324.3	63,767.503906
325.2	6,309.441406
326.7	12,282.076172
327.3	18,267.517578
328.2	6,641.921875
329.3	4,570.358398
330.2	9,164.193359
331.2	3,904.774170
332.6	1,915.826904
333.8	126,446.382813
334.4	119,325.421875
335.3	41,044.187500
336.1	108,455.625000
336.9	22,706.701172
337.7	161,896.375000
338.2	434,467.718750
339.2	85,356.820313
339.8	27,646.275391
340.8	17,552.255859
341.7	2,444.219482
342.2	0.445784
342.9	6,057.645508
343.6	800.522156
344.2	1,485.595215
345.0	2,999.268311
346.1	21,614.628906
347.1	7,761.020996
348.3	3,816.505371
349.8	23,490.986328
350.5	33,316.863281
352.2	12,168,167.000000
353.4	1,856,912.625000
354.3	255,729.984375
355.2	35,389.722656
355.9	9,705.629883
356.9	8,001.777344
358.0	1,597.658936
359.2	15,555.543945
360.0	5,309.433105
360.8	252,934.500000
361.4	602,386.812500
362.6	78,807.382813
363.4	47,005.820313
364.3	19,224.458984
365.7	19,070.009766
366.6	16,416.917969
367.5	20,322.355469
368.2	26,921.390625
369.0	7,499.412109
369.6	24,224.958984
370.3	20,446.685547
371.3	8,744.346680
372.0	5,238.680664
372.6	214.472916
373.5	3,574.187012
374.0	771.127319
374.9	4,410.478027
375.5	4,333.258301
376.2	5,940.289063
377.5	12,745.138672
378.2	44,571.957031
378.9	62,690.960938
379.7	320,390.437500
380.4	268,867.968750
381.3	65,491.707031
382.1	16,644.751953
382.8	3,682.606201
383.9	109,028.390625
384.4	89,349.578125
385.3	22,015.693359
386.1	10,007.482422
386.6	540.452087
387.3	2,802.346924
388.2	3,042.291504
389.4	2,329.947510
390.3	1,470.308228
391.2	3,978.960938
391.8	3,193.529785
392.6	109,930.578125
393.2	518,928.343750
394.2	200,435.234375
395.2	72,908.804688
395.9	4,468.595215
396.4	10,411.650391
397.2	25,231.634766
398.2	24,882.607422
399.0	7,934.865234
400.0	11,965.864258
401.0	3,655.009277
401.7	826.455994
403.1	4,233.515625
404.2	490.771118
404.8	0.119100
405.7	742.999756
406.9	29,847.509766
407.7	34,698.289063
408.8	3,010.131592
409.8	6,036.885254
410.4	7,305.851074
411.4	3,374.580566
412.4	21,420.736328
413.2	6,047.104004
414.1	71,577.609375
415.2	21,048.886719
416.0	13,325.757813
416.7	855.292480
417.3	0.714557
417.9	2,061.995117
418.8	1,187.932251
419.9	5,293.639648
421.0	40,442.390625
421.7	6,855.857910
422.2	2,881.821045
422.9	11,932.711914
423.5	350.384644
424.5	3,779.830078
425.3	6,274.869141
425.8	57,217.074219
426.4	57,476.054688
427.1	31,062.052734
428.0	10,096.031250
428.9	985.977478
429.9	3,579.281494
430.6	1,280.604980
431.6	58.493397
432.2	3,063.489014
433.2	2,189.827148
434.1	10,582.699219
434.9	10,279.704102
435.5	2,356.043213
436.4	1,925.822388
437.3	113.357803
438.8	9,044.269531
439.4	4,020.669922
439.9	501.461517
440.7	514.756775
441.4	1,020.038330
442.4	4,516.536621
443.1	3,396.892090
443.6	2,812.627441
444.9	1,875.360352
445.5	76.173195
446.2	3,916.302490
447.2	1,800.469727
448.1	2,442.012451
449.0	2,069.653320
449.7	732.037598
450.6	6,195.664551
451.2	2,762.721436
452.6	1,600.973267
454.2	467.518982
455.2	1,797.606079
456.6	4,774.275879
457.3	2,943.117676
458.5	208.414932
459.7	1,612.941528
460.4	2,064.817139
461.5	546.511536
462.2	10,565.653320
463.2	6,781.354492
463.8	0.706905
464.3	1,309.716553
465.5	250.602066
466.1	1,772.631592
466.7	762.889526
467.5	4,587.427734
469.0	11,196.481445
469.9	222.024139
470.5	2,269.236572
472.2	2,287.437012
472.9	0.726216
473.8	0.048793
474.3	1,250.714233
475.2	1,124.084229
476.1	369.632782
477.4	2,736.066406
477.9	940.128845
478.7	0.000006
479.6	140.954224
480.2	1,214.251709
480.7	1.251174
481.8	128.231918
483.0	1,564.564331
483.7	254.395203
485.3	9,538.392578
486.3	1,951.905029
486.9	1,677.601196
487.6	1,439.303711
488.2	2,984.246582
488.8	2,232.938232
489.4	2,800.189941
490.1	4,000.044678
490.7	947.076538
491.3	0.084037
491.9	60.188046
492.8	1,340.696289
493.8	4,127.893555
494.3	3,197.123779
495.2	4,911.039551
495.8	147.841293
496.9	501.011566
498.5	7,484.077637
499.6	1,888.723877
500.2	2,972.631592
501.1	1,860.007446
502.2	2,752.549316
503.9	707.228271
505.0	1,873.236694
506.1	0.031644
507.0	154.132431
507.6	901.855408
508.4	3,120.480713
509.1	2,022.516113
510.2	2,273.984863
511.1	570.493103
512.0	5,698.115234
513.2	4,174.256348
514.1	2,737.146973
514.8	176.772736
516.2	703.812256
517.2	3,079.331787
517.8	817.853088
518.7	774.323242
519.4	2,852.632080
520.0	165.182144
521.0	5,428.414063
521.5	284.890411
522.1	453.514984
523.9	6,105.548828
524.5	245.151855
525.1	4,122.385254
525.7	186.346741
526.8	7.555015
527.5	1,318.570557
528.3	0.556807
529.3	2,878.066162
530.1	1,096.640869
530.8	0.284032
531.6	501.350616
532.4	0.980805
533.2	1,598.091187
533.9	4,904.812500
534.7	14.706064
535.4	2,992.824219
536.1	0.136062
537.0	2,888.704834
537.9	1,486.448608
538.8	744.150085
540.1	0.009032
541.0	3,386.297852
541.8	187.063004
542.5	79.403946
543.5	597.670349
544.1	2,456.137451
544.9	1,672.756104
547.0	12.019085
547.6	0.086136
548.1	2,183.098389
548.8	0.009665
549.4	241.751328
550.1	1,367.773804
550.7	1,712.765381
551.4	0.025970
552.2	1,648.079224
552.8	1,428.183960
553.4	1,363.172607
554.0	0.166086
554.5	19.827240
555.6	7.952393
556.3	124.946686
557.2	1,859.937988
558.0	0.177811
559.6	1,692.500610
560.1	0.012081
561.2	2,534.961670
561.9	3,427.752441
562.4	190.735657
563.3	0.000000
564.6	0.108605
565.4	0.148082
566.2	0.462878
567.3	1,245.572144
568.1	1,749.282715
568.7	617.221069
569.3	0.009575
570.0	1,050.845093
570.8	0.560281
571.4	0.000000
572.0	2,282.327393
572.8	0.606686
573.7	0.697380
575.0	461.703613
576.5	1,933.662964
577.2	191.940033
578.0	102.782272
578.5	0.576430
579.1	6,303.312012
580.0	0.000000
581.0	0.105111
581.6	0.009203
582.3	0.001455
582.9	0.000000
584.7	3,398.587158
585.3	401.554230
587.0	793.000488
587.6	0.071711
588.3	0.004301
589.3	1,405.916260
589.9	0.086461
590.8	0.000034
591.6	0.000030
592.5	0.000000
593.2	2,574.987549
594.0	1,988.061401
594.8	56.780972
596.4	623.145203
597.9	1,223.027710
599.1	0.085798
600.4	193.045502
601.5	0.031847
602.6	1,796.663574
604.1	204.402908
604.9	55.553684
605.7	5,110.393066
606.8	3,349.426758
607.6	0.007556
609.4	7.736616
610.2	0.000000
611.3	0.000007
612.0	989.961670
613.3	147.038132
613.9	0.000000
615.0	0.094365
616.3	0.000029
616.9	0.000000
617.6	0.194839
618.4	1,382.453491
619.1	0.141776
620.2	0.069087
620.9	2.811644
621.6	0.013896
622.3	1,408.037598
624.0	6,283.752930
624.5	0.041478
625.4	1,543.488647
626.3	0.171527
626.8	0.000000
628.0	213.639236
628.7	0.000000
629.8	311.678162
631.0	4,356.413574
632.0	5,224.801270
632.6	0.295203
633.3	4,526.884277
633.8	0.331960
634.4	0.000000
635.3	1,428.270752
635.8	3,702.223633
636.8	14,497.282227
637.6	5,468.412109
638.4	2,491.120117
639.0	5,425.558105
639.6	1,094.257568
640.4	0.011002
641.2	2,380.225586
642.4	0.000000
643.3	0.000000
644.0	3,159.587402
644.9	507.523376
646.1	2,176.436523
646.6	393.327301
647.4	371.139648
648.5	0.080934
649.0	0.097185
650.1	0.006610
650.9	0.000000
652.0	1,184.813354
652.9	1,824.994751
653.8	0.167325
655.1	8,969.364258
656.0	7,747.925293
657.0	3,058.875732
657.9	783.863403
658.5	9.342733
660.1	237.846725
661.0	273.829742
662.0	0.001858
663.5	2,281.188965
664.1	99.603279
665.3	0.403565
666.0	0.000014
667.0	7,887.313965
668.1	0.250468
668.8	8,391.223633
669.3	4,639.597656
670.7	30,609.470703
671.4	43,724.335938
672.2	29,066.064453
673.1	3,348.651611
674.2	6.160742
674.8	130.174103
675.6	0.088473
676.2	296.228058
677.3	0.077835
678.0	1.142954
678.9	1,824.808716
679.6	464.987183
680.4	0.265571
681.3	0.059455
682.2	0.054718
683.7	314.718994
685.2	4,321.065430
686.0	5,122.711914
686.9	7,312.608398
687.6	3,394.516113
688.2	1,011.436768
689.0	709.365234
689.6	287.630585
690.3	0.019012
691.3	43.231918
692.3	3,134.138428
693.3	10,290.125977
693.8	5.774227
694.4	3,433.347168
695.0	1,551.657593
696.5	934.811768
697.0	3,707.785400
697.8	0.000000
698.8	376.564728
700.5	5,146.063477
701.3	5,749.952148
703.3	3,801.945801
704.2	1,548.359863
704.8	0.000000
705.4	0.002256
705.9	319.729950
707.1	0.866849
709.2	6,155.982422
710.0	3,389.887695
710.6	298.822205
711.3	1,076.408936
712.2	599.193359
713.2	2,516.066650
714.1	0.000000
714.9	813.816345
716.4	764.034485
716.9	1,476.519653
717.5	2,348.737549
718.2	3,753.023926
719.1	2,758.151611
719.8	2,621.063721
720.9	932.017761
721.4	591.070007
722.2	0.042392
722.8	1,193.385498
723.8	0.032129
724.6	0.073133
725.5	871.988098
726.8	267.824554
727.9	0.587643
728.6	764.439453
729.3	1,647.767578
730.7	1,236.075439
731.7	0.000009
732.2	0.051371
733.4	0.000002
734.2	399.520325
734.7	0.003558
735.4	0.149469
736.0	0.000000
737.2	1,909.060547
738.4	2,233.128662
739.1	1,019.620422
740.3	42.114815
742.3	104.497116
743.1	0.000001
743.7	0.000000
744.4	0.000002
745.5	1,937.109253
746.4	0.369204
747.5	90.765762
748.3	0.000000
749.1	0.289615
749.6	0.109766
750.4	0.000002
751.0	187.772873
752.3	939.986572
753.0	0.036137
754.2	3,412.400391
754.8	79.431755
755.4	149.041779
756.7	111.108421
757.8	0.425095
758.4	0.178373
759.1	0.000000
760.2	289.942261
760.8	0.012676
761.9	5.115792
763.4	257.723846
764.0	0.013491
764.5	0.239689
765.1	0.000000
766.2	0.000000
767.0	0.047030
767.8	0.000000
768.4	0.000000
769.3	1,574.928223
770.5	570.847595
771.0	0.041497
771.6	0.000000
772.3	0.009570
773.2	0.046774
773.9	0.000001
775.0	0.008626
775.6	0.000000
776.2	1,895.013794
777.2	1,399.496216
777.9	0.000000
778.5	0.000000
779.0	0.075050
780.1	281.538696
780.9	0.000000
781.8	0.000000
783.0	991.852417
784.1	2,541.907715
784.7	0.237259
785.2	0.024361
786.2	8.308724
787.0	647.755188
787.9	0.200601
788.8	0.198380
789.8	34.929459
790.5	0.000105
791.1	201.588135
792.1	0.493112
792.7	48.004311
793.7	0.044543
795.1	0.000000
795.7	0.000005
796.3	928.740540
797.9	0.000004
798.7	0.123861
799.8	0.000000
800.3	0.000000
801.3	0.011153
802.1	98.440437
802.7	0.041405
803.5	3,097.922363
804.4	565.342041
805.1	0.295670
806.0	307.928467
806.9	0.000000
807.5	0.027838
808.3	0.017030
809.0	0.529211
809.6	91.278130
810.2	0.000000
811.3	0.000000
811.9	0.000000
813.0	92.452042
813.5	0.015340
814.1	0.000000
815.7	289.537018
817.8	0.000000
818.6	0.000002
819.8	0.035024
820.8	0.000000
822.2	0.139239
823.1	0.191375
823.8	0.000007
824.4	0.000000
825.3	0.000000
826.0	0.000000
826.6	0.011405
827.4	0.000000
828.0	0.004405
828.6	0.000000
829.5	0.000002
830.4	2.765304
831.4	0.238469
832.3	0.000011
833.6	0.000001
834.2	3.006810
834.9	0.886363
837.6	674.518372
838.5	0.000000
839.5	719.792480
841.1	0.000000
841.7	0.000000
842.8	0.000000
843.9	0.000000
845.7	0.000000
846.6	0.000000
847.7	169.256592
848.3	0.000000
848.8	0.045324
849.4	0.000002
851.6	0.000002
852.2	0.000000
854.0	0.000000
854.9	0.078572
855.6	0.000000
856.5	0.000000
857.2	0.000000
858.0	0.033834
859.9	0.000000
860.5	0.000002
861.1	0.000001
862.0	94.559067
863.1	0.007747
863.7	0.000000
864.7	0.037976
866.0	70.269836
866.9	0.036615
867.9	0.000000
869.6	0.000001
870.5	0.000000
871.3	0.006804
872.2	0.001128
873.1	0.000000
873.7	0.000000
874.4	0.000000
875.2	0.016609
875.8	0.034848
876.8	0.000000
877.8	0.000000
878.4	0.000000
879.0	0.000000
879.8	0.028183
880.8	314.656403
881.8	0.000000
882.4	0.000343
883.2	0.000000
883.9	0.000000
885.0	0.014848
885.7	0.000000
887.2	0.000007
888.1	0.018660
889.1	0.936329
890.0	0.019963
891.1	1.125511
892.2	101.809166
893.2	0.020640
893.9	0.000000
895.4	0.000000
895.9	173.104202
897.5	0.049580
899.7	0.000000
900.3	294.307922
901.6	51.083050
902.7	0.000000
903.7	0.000000
904.8	0.000026
905.7	0.000009
906.6	0.000000
907.3	0.000012
907.8	0.000000
908.6	0.000000
909.4	0.000002
910.9	391.442291
911.4	0.000000
912.1	0.014352
913.0	0.165315
914.5	0.039793
915.4	0.028612
916.0	0.000000
917.7	0.000002
919.6	242.459488
920.5	0.004406
921.2	0.000000
922.1	0.000002
923.0	0.000001
923.8	0.000000
924.9	0.000000
926.5	0.012604
927.4	0.000000
928.8	0.169098
929.9	0.004120
930.8	201.556183
932.1	0.000442
935.2	0.000000
936.2	0.000003
937.6	0.000000
938.4	0.000000
939.0	0.000000
940.1	0.000005
940.6	0.000000
941.6	0.000022
942.6	0.857974
943.1	0.047804
944.0	0.000596
944.6	0.029552
945.4	0.000001
947.4	0.000000
947.9	109.697495
948.7	0.000000
950.3	0.659154
950.9	0.537851
952.1	0.000000
952.8	0.000000
953.6	0.000000
954.3	59.481140
955.1	0.000000
955.8	0.054631
956.9	0.000000
958.6	62.426723
959.9	0.000001
961.0	0.000000
961.6	0.000000
962.4	0.000000
962.9	0.005896
964.2	0.000000
964.7	0.000000
966.1	0.027469
966.6	0.000000
968.2	0.000000
969.1	0.000000
970.3	185.591995
972.1	0.000001
972.8	0.000000
973.5	0.000002
975.7	0.000002
976.3	0.000001
977.6	0.000000
978.6	0.000000
979.7	0.000000
980.3	0.000000
981.4	0.000001
981.9	0.000000
982.9	287.989746
983.8	0.000000
984.4	0.000000
985.3	0.000000
986.1	0.000573
986.8	0.042121
988.5	0.000000
989.2	0.000000
990.6	0.000000
993.4	319.170349
994.7	0.000001
995.4	0.000000
996.9	0.000000
998.1	0.000000
999.4	0.018551
1,000.1	1,025.714355
1,001.3	0.000000
1,002.3	0.000003
1,003.7	0.000000
1,004.4	0.000000
1,005.6	0.000000
1,006.2	0.000000
1,007.6	0.000001
1,008.6	0.000000
1,010.9	0.001145
1,012.6	0.000000
1,014.2	0.000000
1,015.9	0.000000
1,017.1	467.820435
1,017.9	0.000000
1,018.4	0.027838
1,019.1	0.000000
1,021.3	0.000000
1,022.3	634.027588
1,023.0	0.027838
1,023.6	0.000000
1,024.3	0.000000
1,025.1	0.000000
1,025.9	0.000000
1,026.8	0.000000
1,027.4	0.000000
1,028.5	0.000709
1,029.2	263.113525
1,030.8	0.000002
1,031.5	0.000000
1,033.0	0.000000
1,034.1	0.000000
1,035.5	0.000000
1,036.9	0.000003
1,039.1	0.000000
1,040.4	0.000000
1,042.1	0.010912
1,043.3	0.000000
1,044.2	0.000000
1,045.0	0.000001
1,046.2	0.000000
1,046.9	0.000000
1,047.6	363.303772
1,048.3	0.000000
1,049.1	0.000000
1,050.2	59.482285
1,051.2	69.254768
1,052.1	0.000000
1,053.1	342.882416
1,054.0	0.000000
1,055.2	0.000000
1,056.5	422.418854
1,057.6	0.023545
1,058.2	0.006860
1,059.0	0.000001
1,060.4	0.000000
1,061.4	0.000000
1,063.1	0.005130
1,063.9	0.003715
1,064.8	0.000001
1,065.4	0.000000
1,067.0	0.000000
1,068.4	105.820602
1,069.6	0.000000
1,071.3	49.122505
1,072.8	0.000000
1,075.0	0.000000
1,075.5	0.000002
1,076.3	0.000000
1,077.6	0.000000
1,078.4	0.000000
1,079.4	0.000000
1,080.2	0.000000
1,080.8	0.000000
1,081.5	0.000000
1,082.5	0.000000
1,083.1	0.000000
1,085.1	0.003677
1,086.0	0.000000
1,086.9	0.000957
1,087.9	0.011634
1,088.5	0.000000
1,089.2	0.000000
1,090.8	0.000008
1,092.0	0.000000
1,093.1	0.000000
1,093.9	0.000000
1,094.4	0.000000
1,095.6	309.759949
1,097.6	0.000000
1,098.6	0.000001
1,099.3	0.000000
1,100.6	0.000000
1,101.2	0.000000
1,102.1	0.000000
1,103.4	0.000000
1,104.3	0.004405
1,105.4	0.000000
1,106.3	0.000000
1,109.1	0.000000
1,110.4	0.000000
1,110.9	59.471321
1,111.6	0.000000
1,112.4	0.019550
1,113.1	62.426723
1,115.1	0.000000
1,117.1	0.000000
1,117.8	0.000000
1,118.9	0.000000
1,119.7	0.000000
1,120.4	0.000000
1,121.4	0.000000
1,123.4	72.598801
1,124.2	0.000000
1,125.1	0.000000
1,125.6	0.009303
1,126.7	0.000000
1,128.9	0.000000
1,130.0	0.000002
1,130.7	0.004711
1,132.1	0.000000
1,132.9	0.000000
1,134.4	0.000001
1,134.9	0.000000
1,135.4	0.000000
1,136.5	0.000000
1,137.4	0.003481
1,138.3	0.000000
1,139.4	0.000000
1,140.4	0.000000
1,141.3	0.000000
1,142.6	0.000000
1,143.6	0.000000
1,144.6	0.000000
1,145.4	0.000000
1,146.4	0.000002
1,147.3	0.001145
1,147.9	0.000000
1,148.4	0.000000
1,149.2	0.000000
1,150.4	6.337149
1,151.0	0.000000
1,151.9	0.000000
1,153.0	0.000000
1,154.4	0.000000
1,155.7	0.001025
1,156.4	0.000000
1,157.2	0.000000
1,158.3	177.856277
1,158.9	85.831856
1,160.1	254.737640
1,161.1	0.000000
1,161.9	0.000000
1,163.6	0.009989
1,164.4	0.000000
1,166.9	0.000000
1,167.5	0.000000
1,169.6	0.000000
1,170.4	0.000000
1,171.1	0.000001
1,171.7	0.000000
1,172.9	0.000000
1,173.6	0.000000
1,175.4	0.003339
1,176.3	0.000000
1,177.4	0.000000
1,177.9	287.998993
1,178.7	0.000001
1,179.3	0.000000
1,180.4	135.327148
1,181.4	0.000000
1,183.0	0.000002
1,183.6	0.000000
1,184.2	0.000000
1,185.6	0.000000
1,186.5	0.000000
1,187.1	0.000000
1,189.0	0.000003
1,190.5	0.000000
1,191.8	0.021842
1,192.5	0.000000
1,193.5	0.000000
1,195.2	0.000000
1,195.9	0.000000
1,198.7	0.004120
1,199.3	0.005328
1,199.9	0.014352
