URL	chrom://pc-3vxg514/ChromeleonLocal/Data/2025/2025_w23.seq/905.smp/ISQEC.xraw
Channel	UV_VIS_2

Injection Information:
Data Vault	ChromeleonLocal
Sequence	2025_w23
Name	CA8393_2jun_SPAAC_pAz_48h
Number	228
Position	GB4
Comment	
Processing Method	General_ILK
Instrument Method	5-100pct_positive_3min
Type	Calibration Standard
Status	Finished
Inject Time	6/4/2025 3:51:22 PM +02:00
Volume (µl)	6.0000
Dilution Factor	1.0000
Weight	1.0000

Raw Data Information:
Data Points	1027
Mass Min. (m/z)	100.000000
Mass Max. (m/z)	1,200.092043
Retention Time (min)	1.510473
Mass Resolution	0.500000
Tolerance Unit	Amu
Scan Number	676
Scan Type	+ c ESI sid=20.00 Full ms [100.000-1200.000]
Is Centroid Scan	True
Base Peak Mass	407.173553
Base Peak Intensity	58,937,112.000000
Total Ion Count	104,746,501.593172

Raw Data:
Mass (m/z)	Value (counts)
100.6	923.878540
101.4	57,788.105469
102.4	14,318.647461
103.5	3,331.838623
105.3	60,031.609375
106.3	496.502899
106.8	454.692017
107.6	0.000001
108.5	0.014732
110.2	0.046271
110.8	0.129274
111.5	0.038168
112.5	0.000016
113.5	1,142.199951
114.7	2,146.870361
115.5	1,682.332764
116.6	254.732285
117.4	1,123.650879
118.6	367.968506
119.5	4,687.324219
120.4	6,407.159180
121.3	227.779144
122.9	0.656560
123.6	180.519287
124.5	0.029860
125.4	0.193786
126.4	0.032485
127.2	19.228615
127.8	0.293576
129.0	932.579956
129.6	9,567.672852
130.4	705.809021
131.2	0.061626
132.0	1,927.096313
132.6	3,791.859131
133.3	9,271.203125
134.0	0.000005
134.6	0.010492
135.6	0.090230
136.2	0.000024
136.7	0.000038
137.4	233.035583
138.2	106.728676
139.5	5,079.055176
140.5	6,927.919434
141.0	1.265478
141.9	0.000009
142.9	0.072007
143.5	200.459763
145.2	0.000044
145.8	0.166770
146.4	125.285423
146.9	0.000004
147.7	72.624565
148.6	0.029742
149.2	0.000000
149.8	0.014012
150.9	0.000149
151.6	305.791290
152.2	0.066398
153.4	2,745.008789
154.6	112.258057
155.4	685.331360
156.2	0.516031
157.6	0.074755
158.4	1,395.709106
159.3	0.100562
161.0	0.052592
162.2	0.351888
163.2	1,623.206787
163.8	463.274963
164.6	0.023004
165.6	0.078517
166.4	3.519749
167.3	166.662827
167.9	1,824.568848
168.6	0.000002
169.6	0.012934
170.3	0.054350
172.1	3,302.735352
173.3	2,975.955566
174.2	148.944717
175.2	1.046965
175.8	288.917053
176.5	0.065853
178.3	5,367.429199
179.8	0.080974
180.6	4,383.772949
181.2	1,135.876587
183.4	87.082771
184.6	328.141327
185.4	0.226466
186.6	1,283.021484
187.9	1,510.085449
188.8	307.056183
189.7	341.700317
191.0	1,399.795410
191.8	0.325585
192.4	0.098485
193.0	1,961.478882
193.6	95.247612
194.5	695.925232
195.1	1,757.397339
196.1	1,107.954224
197.3	1,482.715820
198.2	448.699097
199.3	5.569837
199.8	534.310852
200.3	622.487732
201.0	0.316824
202.0	7,687.803223
202.7	6,499.403320
203.4	13,512.871094
204.0	121,816.507813
204.6	261,269.093750
205.6	3,855.735352
206.1	0.143814
207.1	0.000000
208.4	466.495850
209.0	269.422791
209.7	0.000000
210.3	0.130008
211.0	0.000017
212.0	0.487443
212.8	79.086052
213.6	0.157329
214.7	0.027463
215.6	1,735.304932
216.4	906.481689
217.7	122.405212
218.4	0.054269
219.6	0.678126
220.5	0.055516
221.5	5,359.337402
222.4	3,098.918701
223.0	14,640.328125
223.6	7,528.026367
224.1	134,949.312500
225.0	995,603.125000
226.0	27,417.925781
226.9	4,243.770020
227.4	311.864685
228.4	0.000007
228.9	248.177322
229.6	0.288617
230.5	2,187.965576
232.3	0.330959
232.9	162.362015
233.9	0.187799
234.8	0.062222
235.9	3,880.693848
236.6	0.790339
237.9	1,255.335327
239.3	0.127911
239.9	0.000022
240.7	83.623421
241.7	0.326355
243.1	4,111.372559
243.8	1,877.396606
244.6	16,999.267578
245.5	40,224.035156
246.5	14,083.993164
247.3	0.123148
247.8	0.103100
248.5	0.000001
249.4	0.210712
250.3	411.190948
251.1	213.780594
251.9	0.101555
252.5	0.026191
253.1	0.000001
253.8	0.000016
254.7	0.000004
255.4	0.130873
256.0	603.031006
257.1	0.165305
257.6	2,100.403564
258.4	0.188449
258.9	0.000003
259.6	229.360840
260.4	0.058688
261.6	0.707458
263.6	217.221283
264.7	800.122070
265.5	0.043618
266.2	1,230.894409
267.0	0.038369
268.4	0.186177
269.5	267.246674
270.3	7,246.877441
271.5	433.323669
272.6	0.000107
273.9	0.009443
274.5	0.036799
275.1	1,662.513672
275.9	41,037.863281
276.4	23,483.849609
277.0	3,487.294189
277.7	2,249.050537
278.7	457.614746
279.5	0.069259
280.8	400.503174
281.9	5,943.303711
282.7	5,066.806152
283.9	490.146973
284.7	970.623047
285.6	479.640198
286.4	166.536621
287.1	263.312561
287.9	0.000023
288.5	1,271.061646
289.2	0.475119
290.2	0.257202
291.5	1.285127
292.0	428.573914
292.5	0.020744
293.7	0.028713
294.3	0.000010
295.5	470.272949
296.8	724.487183
297.7	5,507.717285
298.3	1,113.774658
299.2	410.357544
300.2	175.399673
301.1	0.000009
301.7	269.336395
302.3	0.047009
303.3	0.108560
304.0	2.725578
304.8	2,252.752197
306.2	0.006284
306.7	0.097231
307.4	1,536.614502
308.4	889.021667
309.5	331.569946
310.5	123.093140
311.4	614.378601
312.4	0.049925
314.0	0.104295
314.8	6,070.453125
315.4	7,411.318848
316.7	419.930115
317.7	1,874.197998
318.5	417.655884
319.0	0.385419
319.9	0.028948
320.5	1,153.277466
321.7	0.065502
322.4	0.205034
323.1	0.000003
324.5	96.999855
325.3	0.028917
326.3	0.000208
327.2	287.830505
328.2	0.338479
328.7	1,929.088989
330.1	0.009581
331.5	685.427673
332.5	0.228238
333.5	299.801208
334.2	0.231967
335.0	5,968.797852
335.7	3,342.593994
336.8	10,836.569336
337.3	5,547.219727
338.4	1,100.018677
339.1	0.231378
340.1	93.694626
341.5	5,469.399414
342.9	0.170984
344.1	501.007660
345.5	0.189010
346.1	837.053711
346.8	0.037979
347.5	71.873802
348.8	3,436.319092
349.7	2,502.174561
350.6	962.120178
351.9	9,261.178711
352.4	3,055.103027
353.2	4,076.296875
354.2	17,928.542969
355.3	4,691.301270
355.9	0.177757
356.4	308.505066
357.5	2,675.078369
358.3	5,059.603027
359.1	7,302.041016
360.1	2,321.317871
361.1	284.706879
362.1	450.646851
363.3	22,155.658203
364.2	9,386.856445
364.9	2,446.124023
366.0	9,814.830078
366.7	5,342.940918
367.6	3,098.340088
368.3	6,711.362305
369.2	724.307495
370.0	4,515.511719
371.5	0.104942
372.4	1,289.125610
373.2	633.921570
373.8	3,813.794434
374.5	4,751.066406
375.4	10,797.416992
376.9	5,710.665527
377.9	1,537.901367
378.8	1,695.160645
379.4	7,217.447754
380.3	8,508.123047
381.3	4,577.601074
382.5	827.419373
383.8	7,987.457031
385.0	1,282.678101
385.9	1,865.417847
386.9	2,679.633789
387.6	0.351313
388.4	134.105026
388.9	0.000015
389.5	367.410004
390.2	695.620239
391.7	2,202.636963
392.6	1,187.707642
393.4	21,236.490234
394.3	6,925.616211
395.0	5,292.469238
395.8	2,965.425781
396.6	2,745.951660
397.2	0.131047
397.7	7,945.778320
398.5	8,388.875977
399.2	2,035.779907
400.1	367.781189
401.0	6.666151
402.0	14.419933
403.3	691.688354
404.2	3,794.147705
404.9	14,976.804688
405.4	21,846.646484
407.2	58,937,112.000000
408.3	13,999,439.000000
409.4	1,567,125.875000
410.5	145,771.343750
411.4	12,365.570313
412.0	7,443.092285
412.6	1,282.052612
413.5	2,990.236328
414.5	2,613.322998
415.0	972.705078
415.8	305.362488
416.3	137.004639
417.2	6,967.262207
417.8	0.343784
418.3	382.993683
419.8	3,834.615479
421.1	218,167.500000
421.9	71,740.468750
422.7	38,852.382813
423.6	6,246.718262
424.4	5,882.393555
425.1	22,681.330078
425.8	16,365.512695
426.5	6,968.316895
427.4	9,085.551758
428.1	4,901.544922
428.9	181,016.578125
429.5	197,577.953125
430.4	75,983.250000
431.2	30,681.388672
431.8	4,197.688965
432.9	801.831238
434.1	4,798.358398
434.6	890.604309
435.3	1,664.832275
436.1	1,991.071899
436.7	3,779.247803
437.3	7,586.650391
438.1	1,285.274414
438.9	764.718689
439.9	2,696.931396
440.9	251.653763
442.1	0.831089
442.9	1,149.329224
443.8	3,595.893311
444.9	303,415.593750
445.5	177,928.031250
446.2	48,755.601563
448.1	16,064,208.000000
449.2	4,135,764.500000
450.3	487,709.187500
451.3	29,862.396484
451.9	20,026.414063
452.8	7,040.249512
454.1	1,582.258179
455.3	6,800.423340
455.9	644.086060
457.3	7,503.308594
458.4	2,258.846924
459.0	3,369.335693
459.8	13,281.310547
460.3	3,813.979736
460.8	181.366882
461.4	3,692.637451
461.9	264.429688
462.4	7,389.735840
463.0	2,495.990723
463.7	1,789.910278
465.0	10,620.797852
465.6	9,402.489258
466.5	1,760.804321
467.3	5,297.701660
467.9	2,256.331787
468.7	8,505.648438
470.1	2,198,942.500000
471.1	606,374.937500
472.1	116,880.539063
473.0	16,890.482422
473.6	1,010.819397
474.2	4,459.722168
475.0	129,083.437500
476.0	34,915.343750
476.7	8,919.878906
477.4	565.813171
478.0	1,704.911499
478.6	1,798.015381
480.5	3,012.620605
481.1	3,082.513428
482.1	3,306.362549
482.9	977.204895
483.8	10.024689
484.4	1,597.953613
485.8	12,402.693359
486.5	18,662.904297
487.3	9,952.689453
488.2	15,534.005859
489.4	5,336.058594
490.2	380.719269
490.8	3,623.145020
491.7	1,182.975952
493.1	2,958.435791
494.2	1,308.405273
495.2	16.009127
496.3	859.051025
496.8	5,788.166504
497.5	3.766764
498.1	335.391724
498.7	559.000122
500.2	52.538895
501.0	2,008.168457
502.6	2,705.741455
503.4	1,485.715698
504.3	652.064270
505.0	110.787239
505.6	52.315590
507.1	407.085175
507.8	1,407.691284
508.5	821.344910
509.1	575.221619
509.8	2,843.996826
510.5	8,639.677734
511.2	23,226.859375
512.1	8,501.449219
512.9	9,596.879883
513.8	3,986.941406
514.5	940.756165
515.6	26.544895
516.6	0.853089
517.6	1,106.512573
518.9	74.200294
519.4	1,173.250610
520.1	0.002737
520.7	1,252.743408
521.4	3,167.434814
522.3	1,302.270386
523.2	2.425561
524.3	15,382.013672
525.1	6,483.998535
526.3	4,385.852051
526.9	1,119.349854
528.0	1.723902
528.9	907.345215
529.5	674.171448
530.7	4,853.109375
532.1	1,250.707764
533.0	409.276825
534.0	5,653.824707
535.0	2,613.925781
535.9	17.399618
536.7	905.505981
537.2	3,343.907227
538.0	588.393433
538.9	46,891.355469
540.0	19,159.308594
540.7	7,028.369629
541.3	369.598877
541.9	856.091797
542.6	640.403015
543.7	2,029.247559
544.4	2,783.133545
545.1	1,519.448120
545.9	232.312592
546.5	832.425354
547.0	0.173117
548.3	2,508.965332
549.0	244.534607
549.5	172.226685
550.6	7,608.275879
551.3	16,005.603516
552.2	19,027.904297
553.1	6,121.977539
553.8	3,542.044678
554.4	774.989197
555.1	343.204529
556.0	4,005.899170
556.8	1,975.454956
557.3	1,398.850220
558.2	1,869.878540
558.9	0.019183
559.5	353.549530
560.4	705.275635
561.2	269.746765
561.7	403.527496
563.0	5,686.619141
563.9	6,487.906250
564.7	0.526009
565.3	597.075439
566.0	2,868.206543
566.8	1,417.358398
567.9	3,706.525391
568.5	2.102757
569.1	497.864227
569.9	0.086715
570.6	0.077353
571.7	1,139.173340
573.1	13,345.202148
573.9	5,771.231934
574.5	257.001587
575.1	2,845.177246
575.9	456.484802
577.1	5,152.123047
578.1	0.002887
578.9	1,057.080933
579.9	1,931.526611
580.8	881.860535
582.0	1,431.770386
583.1	2.839888
583.8	0.018296
585.0	12,277.908203
586.0	1,996.454712
586.6	2.630380
587.2	1,570.775879
587.8	11.418583
589.2	9,296.533203
590.3	4,913.144531
590.9	533.814453
592.2	0.090827
593.6	4,346.938965
594.4	0.000000
595.2	0.000043
596.0	244.208115
597.0	682.361877
597.6	1.456927
598.1	0.221067
598.7	1,695.697876
599.5	0.021720
600.0	0.000005
601.2	1,420.418091
602.1	7,416.121094
603.0	140.377106
603.7	0.061723
604.3	4,004.097412
604.8	0.007923
605.5	1,278.534912
606.3	1,659.870483
607.2	459.846466
608.3	0.194823
608.9	720.388794
610.2	305.071960
611.2	414.022736
611.9	598.114380
613.0	0.001247
613.9	0.141656
614.6	0.000019
615.2	0.000000
615.7	0.000000
616.7	1,037.275269
617.6	5,632.146484
618.5	713.795532
619.2	0.000000
620.3	0.046284
621.0	242.157211
621.7	0.000013
622.2	0.181940
623.6	0.000005
624.9	2,043.238403
626.3	2,131.795654
627.0	687.884949
627.7	0.000000
628.5	928.098389
629.2	0.096397
629.9	0.000005
630.5	0.000012
631.3	0.000000
632.0	0.134348
632.7	295.424011
633.9	0.150990
634.8	616.771729
635.5	0.000001
636.0	0.008395
637.9	3,329.724121
638.7	0.013234
639.5	0.025938
640.1	0.229111
641.3	2.475388
641.8	0.000357
643.5	2,391.876953
644.3	0.535443
644.9	1,445.168335
645.8	0.117874
646.3	0.000000
646.8	0.000008
647.5	0.000010
649.0	1,900.875000
649.9	817.385254
651.0	0.000002
651.9	0.000000
652.5	0.000000
653.4	0.024034
655.1	774.950562
656.4	0.000012
657.5	0.017441
658.2	0.000000
658.9	0.027974
659.6	0.032107
660.8	0.089207
661.6	0.000089
662.4	0.029995
662.9	0.000000
663.4	86.808617
664.5	0.003077
665.4	0.015867
665.9	1,856.433472
666.7	200.900955
667.3	0.042958
667.9	0.000024
668.5	0.022876
669.8	0.000115
670.9	0.121607
671.7	0.051817
672.6	0.000978
673.3	0.016611
674.1	0.000000
674.9	33.843170
675.8	0.000000
676.7	0.008388
677.5	0.000001
678.3	326.075928
678.8	0.000000
679.4	0.000000
680.0	0.000000
681.0	3,579.947266
681.9	1,019.257202
682.8	1,807.763184
683.6	1,459.380493
685.1	1,928.074707
686.0	857.751343
687.0	0.259347
687.7	12.620083
688.9	3,182.099121
689.4	0.236939
690.2	0.000000
691.3	11,584.927734
691.8	1.021039
692.6	0.077407
693.2	0.000000
695.1	3,135.317627
696.3	0.008313
697.8	3,565.920410
699.1	547.928406
699.8	0.000012
700.4	0.000000
701.8	0.008429
702.4	0.089468
703.2	0.406335
704.0	3,148.773682
705.3	0.000000
706.8	0.000833
707.3	344.574158
707.9	0.000003
709.3	0.054277
710.1	0.000000
711.2	1.142542
712.1	597.278503
712.9	1,334.494995
713.7	0.000005
714.8	0.040100
716.0	309.172821
716.9	0.000007
717.4	0.000000
718.5	0.000000
719.8	0.000000
720.7	0.000000
722.0	1,530.003418
722.5	0.000018
723.2	0.000000
723.7	0.000000
724.7	0.000004
725.8	0.000000
726.4	0.000000
727.2	0.000000
728.3	0.000000
729.0	0.000000
729.6	0.000000
730.4	0.179451
731.4	0.026042
731.9	100.298141
732.7	0.000002
733.2	0.000015
734.4	0.231171
735.5	0.000004
736.3	0.000806
737.1	0.000000
737.6	0.000000
738.3	0.021581
738.9	0.078120
740.4	0.416342
741.0	0.000000
742.0	0.051439
742.9	0.000000
743.7	0.000000
744.6	0.032977
745.8	0.029460
746.4	0.000000
748.7	233.914978
749.4	2,367.038574
750.4	0.000000
751.2	0.000000
752.0	0.000000
752.6	0.000003
754.9	0.026185
755.7	0.007622
756.4	0.000000
757.9	0.302497
758.5	100.741982
759.5	1,580.342896
760.1	0.000000
762.0	0.000000
762.7	0.000000
763.2	393.007263
764.1	0.000003
764.8	0.000000
766.0	0.000005
766.8	0.000000
770.1	0.004168
771.3	133.307236
771.9	0.000000
772.9	0.060468
773.5	0.000000
775.2	0.000000
775.8	0.000000
776.5	0.000000
777.1	0.000000
777.7	0.019091
779.3	0.000000
780.1	0.000037
781.2	0.059509
783.0	0.000000
784.2	0.000000
785.6	0.000000
788.2	262.549530
789.5	0.000003
791.0	0.012270
791.8	0.000000
793.3	0.000000
794.1	0.000000
794.7	0.035924
795.2	0.000002
796.9	4.009603
797.8	0.000002
799.2	0.008307
799.8	0.007519
800.6	67.993851
801.6	0.000000
803.2	0.069402
804.9	0.057373
805.6	0.098601
806.8	0.000000
807.4	0.000000
808.2	0.000000
809.0	1,358.088623
809.8	0.000000
810.6	0.066356
811.9	5,825.556641
813.3	953,627.937500
814.4	335,183.031250
815.3	152,226.000000
816.5	10,083.246094
817.3	2,928.370605
817.8	0.123482
818.8	540.001404
819.6	0.006193
820.3	875.439148
820.9	0.038973
821.7	0.109878
822.6	940.825989
824.0	173.356644
825.1	0.069053
825.8	0.000000
827.3	0.000000
829.0	203.186966
829.8	1,543.568726
831.2	2,680.670410
832.1	774.232971
833.0	416.206665
834.4	8,307.522461
835.3	90,010.867188
836.2	58,583.085938
836.9	6,991.702637
837.4	14,929.939453
838.4	269.321136
838.9	797.119141
839.8	0.053949
840.4	0.000011
841.0	0.000000
842.8	0.000001
843.7	0.036541
844.4	0.215154
845.0	0.005691
846.0	0.016761
848.0	85.048775
849.4	323.728821
850.3	0.004250
850.9	0.000000
851.9	0.508365
852.5	0.000000
854.5	0.186300
855.4	0.000000
856.2	0.000000
857.6	0.000000
858.7	0.000000
860.3	55.949062
861.0	100.167809
861.6	0.000002
862.4	0.074929
863.5	0.201380
864.1	0.000000
865.0	299.635132
866.2	0.591453
867.0	4,879.216797
867.8	0.088393
868.9	3,051.661865
869.7	0.000002
870.2	77.167404
871.3	0.000004
872.7	0.000000
873.2	0.024062
873.8	0.000000
874.3	198.139008
875.7	612.232422
876.6	132.842163
877.2	6,835.582520
878.2	1,711.721191
878.7	0.143335
879.5	4,044.451904
880.3	26.903887
881.2	262.097900
882.2	1.997911
883.7	0.000000
884.5	6,025.921875
885.5	988.331970
886.6	0.000006
887.5	895.360779
890.7	0.000002
894.8	0.000000
895.5	0.010629
896.1	0.000000
897.0	0.000000
898.2	0.067287
898.9	0.249091
902.7	0.214887
904.0	1,631.298218
905.3	1,132.274048
906.1	296.686249
906.8	0.253006
907.5	1.021007
908.0	0.027346
908.6	10.684732
910.1	1,791.103394
911.3	313.974854
912.7	622.514893
913.6	120.298149
914.4	0.070666
915.0	0.000000
916.1	55.556274
917.2	533.827820
919.5	0.088382
922.4	0.181370
924.6	0.000023
925.9	852.593628
928.6	0.000017
930.7	0.542773
931.3	0.029942
931.9	0.000001
933.6	0.314432
935.1	0.033676
937.3	0.042227
939.1	0.143407
939.9	0.000001
941.3	0.211079
942.8	0.899740
944.2	648.715576
945.2	0.130661
948.2	0.025599
949.9	0.094128
951.0	316.274323
951.6	0.000000
952.4	0.276478
953.2	0.548675
953.9	0.000000
955.3	0.212264
958.7	0.000000
961.7	0.069381
962.8	0.000003
963.3	0.172002
964.2	107.720261
965.2	0.000007
966.9	0.000000
970.1	538.187073
970.9	0.000000
972.0	0.000000
974.4	1,249.258301
976.4	0.000000
978.7	0.000000
979.5	0.000000
981.2	0.005470
984.2	0.000000
985.1	0.000000
985.8	0.000000
990.0	0.000000
992.3	0.235096
994.6	0.000000
996.1	0.000723
996.7	0.000000
998.3	0.159145
999.0	0.000000
1,000.6	0.000000
1,002.0	288.858398
1,003.2	0.000000
1,005.0	0.000000
1,009.3	0.048941
1,010.8	0.000000
1,015.5	0.028896
1,018.1	0.000000
1,022.5	2,525.052734
1,025.4	348.471771
1,026.9	0.028896
1,032.4	0.000000
1,034.5	0.000000
1,042.7	0.000000
1,044.1	2,044.332153
1,046.5	0.000000
1,049.3	0.035104
1,050.4	0.000000
1,051.9	0.000938
1,055.1	0.000000
1,057.2	0.006154
1,061.4	0.000000
1,062.2	0.000000
1,064.6	20.715183
1,066.2	0.000000
1,067.1	0.124163
1,069.2	0.197016
1,072.8	0.000000
1,073.9	0.000000
1,075.2	0.001054
1,078.3	0.000013
1,080.4	0.063440
1,081.6	0.191458
1,086.0	0.000000
1,088.1	0.000000
1,094.5	0.000000
1,096.2	0.000940
1,097.4	1.057317
1,098.6	0.000000
1,102.1	81.720261
1,102.8	0.000000
1,103.5	0.000669
1,104.8	0.000315
1,109.7	0.000000
1,110.6	0.000000
1,112.7	251.998886
1,115.0	0.000000
1,117.6	0.000000
1,118.5	0.000000
1,119.7	0.000000
1,123.0	0.000000
1,124.5	0.000000
1,128.3	1,532.657837
1,129.9	0.683958
1,133.1	0.262824
1,134.8	0.000003
1,135.6	0.000000
1,137.8	0.010997
1,140.9	0.000000
1,142.0	0.000000
1,144.6	0.000002
1,145.8	27.157484
1,147.8	0.000000
1,148.7	0.000000
1,149.8	0.000000
1,150.8	0.000000
1,152.3	0.000000
1,156.8	0.000000
1,158.1	0.000000
1,162.1	0.000000
1,168.3	0.000000
1,169.4	0.000000
1,170.4	0.003907
1,173.8	0.000000
1,178.0	0.000000
1,178.8	299.593628
1,182.5	0.000000
1,184.4	0.000000
1,185.7	0.014352
1,191.9	0.000000
1,194.4	76.030998
